May 24, 2025   16:00:54
Cyclic Voltammetry
File: c:\python\win\device_jules\experiment_results\cv_1748073626.bin
Data Source:  Experiment
Instrument Model:  CHI760E
Header: CHI760E CV
Note: 

Init E (V) = 0
High E (V) = 0
Low E (V) = -2.2
Init P/N = N
Scan Rate (V/s) = 0.2
Segment = 2
Sample Interval (V) = 0.01
Quiet Time (sec) = 2
Sensitivity (A/V) = 0.1

Segment 1:
Ep = -0.245V
ip = -1.257e-6A
Ah = -3.958e-7C

Ep = -1.075V
ip = -3.733e-7A
Ah = -1.768e-7C

Ep = -1.435V
ip = -9.037e-7A
Ah = -6.090e-8C

Ep = -1.675V
ip = -8.349e-7A
Ah = -1.110e-7C

Ep = -2.035V
ip = -1.964e-6A
Ah = -4.027e-7C

Segment 2:
Potential/V, Current/A

-0.005, -7.029e-5
-0.015, -7.019e-5
-0.025, -7.049e-5
-0.035, -7.000e-5
-0.045, -7.029e-5
-0.055, -7.029e-5
-0.065, -7.058e-5
-0.075, -7.019e-5
-0.085, -7.088e-5
-0.095, -7.176e-5
-0.105, -7.147e-5
-0.115, -7.147e-5
-0.125, -7.108e-5
-0.135, -7.166e-5
-0.145, -7.166e-5
-0.155, -7.216e-5
-0.165, -7.255e-5
-0.175, -7.186e-5
-0.185, -7.186e-5
-0.195, -7.186e-5
-0.205, -7.216e-5
-0.215, -7.147e-5
-0.225, -7.275e-5
-0.235, -7.225e-5
-0.245, -7.304e-5
-0.255, -7.275e-5
-0.265, -7.245e-5
-0.275, -7.255e-5
-0.285, -7.216e-5
-0.295, -7.255e-5
-0.305, -7.235e-5
-0.315, -7.186e-5
-0.325, -7.324e-5
-0.335, -7.294e-5
-0.345, -7.245e-5
-0.355, -7.294e-5
-0.365, -7.265e-5
-0.375, -7.284e-5
-0.385, -7.235e-5
-0.395, -7.235e-5
-0.405, -7.255e-5
-0.415, -7.265e-5
-0.425, -7.284e-5
-0.435, -7.255e-5
-0.445, -7.363e-5
-0.455, -7.383e-5
-0.465, -7.383e-5
-0.475, -7.333e-5
-0.485, -7.314e-5
-0.495, -7.343e-5
-0.505, -7.314e-5
-0.515, -7.304e-5
-0.525, -7.324e-5
-0.535, -7.422e-5
-0.545, -7.363e-5
-0.555, -7.314e-5
-0.565, -7.383e-5
-0.575, -7.314e-5
-0.585, -7.422e-5
-0.595, -7.343e-5
-0.605, -7.373e-5
-0.615, -7.422e-5
-0.625, -7.471e-5
-0.635, -7.422e-5
-0.645, -7.383e-5
-0.655, -7.353e-5
-0.665, -7.392e-5
-0.675, -7.363e-5
-0.685, -7.373e-5
-0.695, -7.333e-5
-0.705, -7.324e-5
-0.715, -7.304e-5
-0.725, -7.245e-5
-0.735, -7.304e-5
-0.745, -7.265e-5
-0.755, -7.265e-5
-0.765, -7.304e-5
-0.775, -7.343e-5
-0.785, -7.343e-5
-0.795, -7.324e-5
-0.805, -7.304e-5
-0.815, -7.304e-5
-0.825, -7.324e-5
-0.835, -7.343e-5
-0.845, -7.343e-5
-0.855, -7.343e-5
-0.865, -7.353e-5
-0.875, -7.294e-5
-0.885, -7.383e-5
-0.895, -7.392e-5
-0.905, -7.363e-5
-0.915, -7.471e-5
-0.925, -7.461e-5
-0.935, -7.451e-5
-0.945, -7.383e-5
-0.955, -7.392e-5
-0.965, -7.412e-5
-0.975, -7.353e-5
-0.985, -7.343e-5
-0.995, -7.412e-5
-1.005, -7.422e-5
-1.015, -7.422e-5
-1.025, -7.432e-5
-1.035, -7.432e-5
-1.045, -7.392e-5
-1.055, -7.422e-5
-1.065, -7.412e-5
-1.075, -7.451e-5
-1.085, -7.442e-5
-1.095, -7.451e-5
-1.105, -7.442e-5
-1.115, -7.392e-5
-1.125, -7.442e-5
-1.135, -7.402e-5
-1.145, -7.422e-5
-1.155, -7.432e-5
-1.165, -7.451e-5
-1.175, -7.481e-5
-1.185, -7.422e-5
-1.195, -7.412e-5
-1.205, -7.373e-5
-1.215, -7.353e-5
-1.225, -7.333e-5
-1.235, -7.432e-5
-1.245, -7.383e-5
-1.255, -7.422e-5
-1.265, -7.451e-5
-1.275, -7.510e-5
-1.285, -7.500e-5
-1.295, -7.461e-5
-1.305, -7.442e-5
-1.315, -7.471e-5
-1.325, -7.442e-5
-1.335, -7.451e-5
-1.345, -7.471e-5
-1.355, -7.383e-5
-1.365, -7.422e-5
-1.375, -7.402e-5
-1.385, -7.422e-5
-1.395, -7.422e-5
-1.405, -7.442e-5
-1.415, -7.392e-5
-1.425, -7.442e-5
-1.435, -7.540e-5
-1.445, -7.540e-5
-1.455, -7.500e-5
-1.465, -7.530e-5
-1.475, -7.481e-5
-1.485, -7.481e-5
-1.495, -7.500e-5
-1.505, -7.422e-5
-1.515, -7.461e-5
-1.525, -7.461e-5
-1.535, -7.402e-5
-1.545, -7.422e-5
-1.555, -7.343e-5
-1.565, -7.412e-5
-1.575, -7.383e-5
-1.585, -7.363e-5
-1.595, -7.432e-5
-1.605, -7.363e-5
-1.615, -7.392e-5
-1.625, -7.363e-5
-1.635, -7.343e-5
-1.645, -7.442e-5
-1.655, -7.451e-5
-1.665, -7.432e-5
-1.675, -7.500e-5
-1.685, -7.442e-5
-1.695, -7.461e-5
-1.705, -7.451e-5
-1.715, -7.471e-5
-1.725, -7.363e-5
-1.735, -7.500e-5
-1.745, -7.461e-5
-1.755, -7.461e-5
-1.765, -7.392e-5
-1.775, -7.412e-5
-1.785, -7.402e-5
-1.795, -7.422e-5
-1.805, -7.392e-5
-1.815, -7.432e-5
-1.825, -7.442e-5
-1.835, -7.363e-5
-1.845, -7.363e-5
-1.855, -7.412e-5
-1.865, -7.412e-5
-1.875, -7.412e-5
-1.885, -7.304e-5
-1.895, -7.422e-5
-1.905, -7.392e-5
-1.915, -7.422e-5
-1.925, -7.383e-5
-1.935, -7.422e-5
-1.945, -7.373e-5
-1.955, -7.353e-5
-1.965, -7.353e-5
-1.975, -7.432e-5
-1.985, -7.442e-5
-1.995, -7.500e-5
-2.005, -7.451e-5
-2.015, -7.461e-5
-2.025, -7.442e-5
-2.035, -7.550e-5
-2.045, -7.432e-5
-2.055, -7.461e-5
-2.065, -7.442e-5
-2.075, -7.442e-5
-2.085, -7.442e-5
-2.095, -7.402e-5
-2.105, -7.432e-5
-2.115, -7.383e-5
-2.125, -7.383e-5
-2.135, -7.383e-5
-2.145, -7.333e-5
-2.155, -7.353e-5
-2.165, -7.343e-5
-2.175, -7.363e-5
-2.185, -7.343e-5
-2.195, -7.373e-5
-2.195, -7.186e-5
-2.185, -7.147e-5
-2.175, -7.166e-5
-2.165, -7.137e-5
-2.155, -7.137e-5
-2.145, -7.147e-5
-2.135, -7.166e-5
-2.125, -7.157e-5
-2.115, -7.176e-5
-2.105, -7.186e-5
-2.095, -7.186e-5
-2.085, -7.196e-5
-2.075, -7.225e-5
-2.065, -7.225e-5
-2.055, -7.265e-5
-2.045, -7.225e-5
-2.035, -7.196e-5
-2.025, -7.176e-5
-2.015, -7.235e-5
-2.005, -7.186e-5
-1.995, -7.196e-5
-1.985, -7.294e-5
-1.975, -7.157e-5
-1.965, -7.196e-5
-1.955, -7.206e-5
-1.945, -7.147e-5
-1.935, -7.186e-5
-1.925, -7.225e-5
-1.915, -7.176e-5
-1.905, -7.245e-5
-1.895, -7.255e-5
-1.885, -7.206e-5
-1.875, -7.235e-5
-1.865, -7.186e-5
-1.855, -7.186e-5
-1.845, -7.265e-5
-1.835, -7.186e-5
-1.825, -7.196e-5
-1.815, -7.225e-5
-1.805, -7.284e-5
-1.795, -7.255e-5
-1.785, -7.255e-5
-1.775, -7.245e-5
-1.765, -7.235e-5
-1.755, -7.275e-5
-1.745, -7.265e-5
-1.735, -7.235e-5
-1.725, -7.265e-5
-1.715, -7.235e-5
-1.705, -7.284e-5
-1.695, -7.275e-5
-1.685, -7.275e-5
-1.675, -7.265e-5
-1.665, -7.275e-5
-1.655, -7.343e-5
-1.645, -7.314e-5
-1.635, -7.304e-5
-1.625, -7.333e-5
-1.615, -7.343e-5
-1.605, -7.265e-5
-1.595, -7.275e-5
-1.585, -7.255e-5
-1.575, -7.392e-5
-1.565, -7.275e-5
-1.555, -7.314e-5
-1.545, -7.392e-5
-1.535, -7.333e-5
-1.525, -7.353e-5
-1.515, -7.343e-5
-1.505, -7.402e-5
-1.495, -7.392e-5
-1.485, -7.373e-5
-1.475, -7.451e-5
-1.465, -7.471e-5
-1.455, -7.461e-5
-1.445, -7.363e-5
-1.435, -7.422e-5
-1.425, -7.392e-5
-1.415, -7.383e-5
-1.405, -7.432e-5
-1.395, -7.373e-5
-1.385, -7.442e-5
-1.375, -7.383e-5
-1.365, -7.402e-5
-1.355, -7.432e-5
-1.345, -7.353e-5
-1.335, -7.422e-5
-1.325, -7.353e-5
-1.315, -7.442e-5
-1.305, -7.412e-5
-1.295, -7.383e-5
-1.285, -7.432e-5
-1.275, -7.383e-5
-1.265, -7.373e-5
-1.255, -7.402e-5
-1.245, -7.412e-5
-1.235, -7.324e-5
-1.225, -7.363e-5
-1.215, -7.353e-5
-1.205, -7.442e-5
-1.195, -7.432e-5
-1.185, -7.392e-5
-1.175, -7.412e-5
-1.165, -7.422e-5
-1.155, -7.412e-5
-1.145, -7.461e-5
-1.135, -7.442e-5
-1.125, -7.442e-5
-1.115, -7.402e-5
-1.105, -7.451e-5
-1.095, -7.451e-5
-1.085, -7.500e-5
-1.075, -7.392e-5
-1.065, -7.383e-5
-1.055, -7.520e-5
-1.045, -7.481e-5
-1.035, -7.491e-5
-1.025, -7.520e-5
-1.015, -7.461e-5
-1.005, -7.422e-5
-0.995, -7.461e-5
-0.985, -7.481e-5
-0.975, -7.510e-5
-0.965, -7.500e-5
-0.955, -7.451e-5
-0.945, -7.540e-5
-0.935, -7.491e-5
-0.925, -7.500e-5
-0.915, -7.500e-5
-0.905, -7.491e-5
-0.895, -7.540e-5
-0.885, -7.442e-5
-0.875, -7.540e-5
-0.865, -7.510e-5
-0.855, -7.530e-5
-0.845, -7.559e-5
-0.835, -7.530e-5
-0.825, -7.530e-5
-0.815, -7.491e-5
-0.805, -7.461e-5
-0.795, -7.471e-5
-0.785, -7.530e-5
-0.775, -7.530e-5
-0.765, -7.500e-5
-0.755, -7.500e-5
-0.745, -7.510e-5
-0.735, -7.491e-5
-0.725, -7.530e-5
-0.715, -7.550e-5
-0.705, -7.550e-5
-0.695, -7.461e-5
-0.685, -7.540e-5
-0.675, -7.559e-5
-0.665, -7.540e-5
-0.655, -7.530e-5
-0.645, -7.510e-5
-0.635, -7.550e-5
-0.625, -7.530e-5
-0.615, -7.569e-5
-0.605, -7.589e-5
-0.595, -7.569e-5
-0.585, -7.559e-5
-0.575, -7.569e-5
-0.565, -7.491e-5
-0.555, -7.540e-5
-0.545, -7.569e-5
-0.535, -7.520e-5
-0.525, -7.530e-5
-0.515, -7.530e-5
-0.505, -7.648e-5
-0.495, -7.618e-5
-0.485, -7.618e-5
-0.475, -7.608e-5
-0.465, -7.599e-5
-0.455, -7.599e-5
-0.445, -7.579e-5
-0.435, -7.628e-5
-0.425, -7.618e-5
-0.415, -7.608e-5
-0.405, -7.599e-5
-0.395, -7.658e-5
-0.385, -7.658e-5
-0.375, -7.658e-5
-0.365, -7.618e-5
-0.355, -7.589e-5
-0.345, -7.530e-5
-0.335, -7.500e-5
-0.325, -7.579e-5
-0.315, -7.579e-5
-0.305, -7.658e-5
-0.295, -7.500e-5
-0.285, -7.540e-5
-0.275, -7.648e-5
-0.265, -7.608e-5
-0.255, -7.589e-5
-0.245, -7.589e-5
-0.235, -7.579e-5
-0.225, -7.510e-5
-0.215, -7.550e-5
-0.205, -7.589e-5
-0.195, -7.530e-5
-0.185, -7.608e-5
-0.175, -7.579e-5
-0.165, -7.579e-5
-0.155, -7.559e-5
-0.145, -7.559e-5
-0.135, -7.579e-5
-0.125, -7.589e-5
-0.115, -7.540e-5
-0.105, -7.658e-5
-0.095, -7.628e-5
-0.085, -7.687e-5
-0.075, -7.648e-5
-0.065, -7.667e-5
-0.055, -7.658e-5
-0.045, -7.677e-5
-0.035, -7.677e-5
-0.025, -7.677e-5
-0.015, -7.628e-5
-0.005, -7.697e-5
