May 24, 2025   12:42:30
Cyclic Voltammetry
File: c:\python\win\device_jules\experiment_results\cv_1748061723.bin
Data Source:  Experiment
Instrument Model:  CHI760E
Header: CHI760E CV
Note: 

Init E (V) = 0.8
High E (V) = 0.8
Low E (V) = -1.4
Init P/N = N
Scan Rate (V/s) = 0.2
Segment = 2
Sample Interval (V) = 0.01
Quiet Time (sec) = 2
Sensitivity (A/V) = 0.001

Segment 1:
Ep = 0.405V
ip = -1.120e-8A
Ah = -3.914e-9C

Ep = -0.085V
ip = -1.080e-8A
Ah = -2.200e-9C

Ep = -1.045V
ip = -1.179e-9A
Ah = -1.375e-10C

Segment 2:
Potential/V, Current/A

0.795, -1.951e-7
0.785, -1.921e-7
0.775, -1.931e-7
0.765, -1.961e-7
0.755, -1.892e-7
0.745, -1.833e-7
0.735, -1.882e-7
0.725, -1.941e-7
0.715, -1.902e-7
0.705, -1.892e-7
0.695, -1.941e-7
0.685, -1.911e-7
0.675, -1.921e-7
0.665, -1.911e-7
0.655, -1.921e-7
0.645, -1.911e-7
0.635, -1.970e-7
0.625, -1.911e-7
0.615, -1.921e-7
0.605, -2.000e-7
0.595, -1.941e-7
0.585, -1.970e-7
0.575, -1.921e-7
0.565, -1.921e-7
0.555, -1.951e-7
0.545, -1.961e-7
0.535, -1.921e-7
0.525, -1.980e-7
0.515, -1.951e-7
0.505, -1.961e-7
0.495, -1.961e-7
0.485, -1.980e-7
0.475, -1.970e-7
0.465, -1.980e-7
0.455, -2.039e-7
0.445, -1.961e-7
0.435, -2.010e-7
0.425, -1.990e-7
0.415, -1.990e-7
0.405, -2.049e-7
0.395, -2.029e-7
0.385, -1.980e-7
0.375, -2.049e-7
0.365, -2.020e-7
0.355, -2.069e-7
0.345, -2.010e-7
0.335, -2.039e-7
0.325, -2.137e-7
0.315, -2.167e-7
0.305, -2.196e-7
0.295, -2.078e-7
0.285, -2.039e-7
0.275, -2.128e-7
0.265, -2.088e-7
0.255, -2.108e-7
0.245, -2.118e-7
0.235, -2.078e-7
0.225, -2.069e-7
0.215, -2.059e-7
0.205, -2.098e-7
0.195, -2.088e-7
0.185, -2.118e-7
0.175, -2.078e-7
0.165, -2.078e-7
0.155, -2.098e-7
0.145, -2.118e-7
0.135, -2.157e-7
0.125, -2.186e-7
0.115, -2.157e-7
0.105, -2.118e-7
0.095, -2.186e-7
0.085, -2.157e-7
0.075, -2.147e-7
0.065, -2.137e-7
0.055, -2.157e-7
0.045, -2.118e-7
0.035, -2.118e-7
0.025, -2.147e-7
0.015, -2.128e-7
0.005, -2.098e-7
-0.005, -2.157e-7
-0.015, -2.167e-7
-0.025, -2.206e-7
-0.035, -2.157e-7
-0.045, -2.186e-7
-0.055, -2.167e-7
-0.065, -2.196e-7
-0.075, -2.245e-7
-0.085, -2.265e-7
-0.095, -2.186e-7
-0.105, -2.196e-7
-0.115, -2.186e-7
-0.125, -2.206e-7
-0.135, -2.177e-7
-0.145, -2.177e-7
-0.155, -2.236e-7
-0.165, -2.255e-7
-0.175, -2.196e-7
-0.185, -2.236e-7
-0.195, -2.196e-7
-0.205, -2.255e-7
-0.215, -2.196e-7
-0.225, -2.216e-7
-0.235, -2.236e-7
-0.245, -2.245e-7
-0.255, -2.275e-7
-0.265, -2.157e-7
-0.275, -2.245e-7
-0.285, -2.226e-7
-0.295, -2.275e-7
-0.305, -2.186e-7
-0.315, -2.236e-7
-0.325, -2.177e-7
-0.335, -2.206e-7
-0.345, -2.157e-7
-0.355, -2.157e-7
-0.365, -2.206e-7
-0.375, -2.186e-7
-0.385, -2.236e-7
-0.395, -2.157e-7
-0.405, -2.167e-7
-0.415, -2.157e-7
-0.425, -2.167e-7
-0.435, -2.157e-7
-0.445, -2.147e-7
-0.455, -2.108e-7
-0.465, -2.157e-7
-0.475, -2.147e-7
-0.485, -2.177e-7
-0.495, -2.206e-7
-0.505, -2.157e-7
-0.515, -2.147e-7
-0.525, -2.118e-7
-0.535, -2.118e-7
-0.545, -2.128e-7
-0.555, -2.196e-7
-0.565, -2.147e-7
-0.575, -2.118e-7
-0.585, -2.157e-7
-0.595, -2.177e-7
-0.605, -2.157e-7
-0.615, -2.137e-7
-0.625, -2.186e-7
-0.635, -2.147e-7
-0.645, -2.128e-7
-0.655, -2.118e-7
-0.665, -2.137e-7
-0.675, -2.108e-7
-0.685, -2.177e-7
-0.695, -2.167e-7
-0.705, -2.196e-7
-0.715, -2.216e-7
-0.725, -2.206e-7
-0.735, -2.196e-7
-0.745, -2.137e-7
-0.755, -2.167e-7
-0.765, -2.177e-7
-0.775, -2.177e-7
-0.785, -2.236e-7
-0.795, -2.236e-7
-0.805, -2.285e-7
-0.815, -2.324e-7
-0.825, -2.334e-7
-0.835, -2.344e-7
-0.845, -2.324e-7
-0.855, -2.353e-7
-0.865, -2.353e-7
-0.875, -2.393e-7
-0.885, -2.383e-7
-0.895, -2.471e-7
-0.905, -2.412e-7
-0.915, -2.412e-7
-0.925, -2.432e-7
-0.935, -2.393e-7
-0.945, -2.334e-7
-0.955, -2.393e-7
-0.965, -2.373e-7
-0.975, -2.383e-7
-0.985, -2.353e-7
-0.995, -2.412e-7
-1.005, -2.363e-7
-1.015, -2.383e-7
-1.025, -2.393e-7
-1.035, -2.412e-7
-1.045, -2.422e-7
-1.055, -2.403e-7
-1.065, -2.412e-7
-1.075, -2.412e-7
-1.085, -2.363e-7
-1.095, -2.363e-7
-1.105, -2.393e-7
-1.115, -2.373e-7
-1.125, -2.422e-7
-1.135, -2.403e-7
-1.145, -2.363e-7
-1.155, -2.422e-7
-1.165, -2.432e-7
-1.175, -2.432e-7
-1.185, -2.393e-7
-1.195, -2.403e-7
-1.205, -2.432e-7
-1.215, -2.403e-7
-1.225, -2.422e-7
-1.235, -2.442e-7
-1.245, -2.403e-7
-1.255, -2.442e-7
-1.265, -2.383e-7
-1.275, -2.452e-7
-1.285, -2.442e-7
-1.295, -2.471e-7
-1.305, -2.442e-7
-1.315, -2.393e-7
-1.325, -2.442e-7
-1.335, -2.412e-7
-1.345, -2.422e-7
-1.355, -2.412e-7
-1.365, -2.403e-7
-1.375, -2.442e-7
-1.385, -2.481e-7
-1.395, -2.442e-7
-1.395, -2.236e-7
-1.385, -2.255e-7
-1.375, -2.236e-7
-1.365, -2.226e-7
-1.355, -2.236e-7
-1.345, -2.196e-7
-1.335, -2.216e-7
-1.325, -2.186e-7
-1.315, -2.265e-7
-1.305, -2.226e-7
-1.295, -2.275e-7
-1.285, -2.255e-7
-1.275, -2.186e-7
-1.265, -2.236e-7
-1.255, -2.255e-7
-1.245, -2.275e-7
-1.235, -2.275e-7
-1.225, -2.255e-7
-1.215, -2.226e-7
-1.205, -2.236e-7
-1.195, -2.216e-7
-1.185, -2.216e-7
-1.175, -2.226e-7
-1.165, -2.216e-7
-1.155, -2.236e-7
-1.145, -2.236e-7
-1.135, -2.236e-7
-1.125, -2.226e-7
-1.115, -2.236e-7
-1.105, -2.226e-7
-1.095, -2.245e-7
-1.085, -2.275e-7
-1.075, -2.275e-7
-1.065, -2.196e-7
-1.055, -2.314e-7
-1.045, -2.295e-7
-1.035, -2.324e-7
-1.025, -2.265e-7
-1.015, -2.236e-7
-1.005, -2.196e-7
-0.995, -2.245e-7
-0.985, -2.275e-7
-0.975, -2.226e-7
-0.965, -2.236e-7
-0.955, -2.226e-7
-0.945, -2.265e-7
-0.935, -2.295e-7
-0.925, -2.236e-7
-0.915, -2.275e-7
-0.905, -2.295e-7
-0.895, -2.314e-7
-0.885, -2.255e-7
-0.875, -2.295e-7
-0.865, -2.236e-7
-0.855, -2.285e-7
-0.845, -2.324e-7
-0.835, -2.344e-7
-0.825, -2.314e-7
-0.815, -2.236e-7
-0.805, -2.265e-7
-0.795, -2.295e-7
-0.785, -2.226e-7
-0.775, -2.255e-7
-0.765, -2.236e-7
-0.755, -2.275e-7
-0.745, -2.255e-7
-0.735, -2.353e-7
-0.725, -2.295e-7
-0.715, -2.275e-7
-0.705, -2.275e-7
-0.695, -2.353e-7
-0.685, -2.304e-7
-0.675, -2.334e-7
-0.665, -2.314e-7
-0.655, -2.314e-7
-0.645, -2.344e-7
-0.635, -2.314e-7
-0.625, -2.285e-7
-0.615, -2.334e-7
-0.605, -2.314e-7
-0.595, -2.275e-7
-0.585, -2.275e-7
-0.575, -2.236e-7
-0.565, -2.265e-7
-0.555, -2.285e-7
-0.545, -2.285e-7
-0.535, -2.265e-7
-0.525, -2.304e-7
-0.515, -2.314e-7
-0.505, -2.353e-7
-0.495, -2.353e-7
-0.485, -2.295e-7
-0.475, -2.314e-7
-0.465, -2.265e-7
-0.455, -2.304e-7
-0.445, -2.353e-7
-0.435, -2.304e-7
-0.425, -2.314e-7
-0.415, -2.236e-7
-0.405, -2.285e-7
-0.395, -2.393e-7
-0.385, -2.324e-7
-0.375, -2.334e-7
-0.365, -2.285e-7
-0.355, -2.324e-7
-0.345, -2.314e-7
-0.335, -2.304e-7
-0.325, -2.285e-7
-0.315, -2.334e-7
-0.305, -2.275e-7
-0.295, -2.314e-7
-0.285, -2.216e-7
-0.275, -2.304e-7
-0.265, -2.304e-7
-0.255, -2.255e-7
-0.245, -2.295e-7
-0.235, -2.245e-7
-0.225, -2.206e-7
-0.215, -2.236e-7
-0.205, -2.216e-7
-0.195, -2.226e-7
-0.185, -2.206e-7
-0.175, -2.196e-7
-0.165, -2.196e-7
-0.155, -2.186e-7
-0.145, -2.206e-7
-0.135, -2.167e-7
-0.125, -2.206e-7
-0.115, -2.216e-7
-0.105, -2.196e-7
-0.095, -2.196e-7
-0.085, -2.167e-7
-0.075, -2.167e-7
-0.065, -2.177e-7
-0.055, -2.226e-7
-0.045, -2.128e-7
-0.035, -2.196e-7
-0.025, -2.226e-7
-0.015, -2.255e-7
-0.005, -2.245e-7
0.005, -2.118e-7
0.015, -2.098e-7
0.025, -2.137e-7
0.035, -2.128e-7
0.045, -2.118e-7
0.055, -2.157e-7
0.065, -2.118e-7
0.075, -2.147e-7
0.085, -2.186e-7
0.095, -2.137e-7
0.105, -2.167e-7
0.115, -2.186e-7
0.125, -2.147e-7
0.135, -2.167e-7
0.145, -2.167e-7
0.155, -2.196e-7
0.165, -2.157e-7
0.175, -2.177e-7
0.185, -2.157e-7
0.195, -2.157e-7
0.205, -2.147e-7
0.215, -2.078e-7
0.225, -2.157e-7
0.235, -2.177e-7
0.245, -2.167e-7
0.255, -2.206e-7
0.265, -2.167e-7
0.275, -2.167e-7
0.285, -2.216e-7
0.295, -2.275e-7
0.305, -2.236e-7
0.315, -2.275e-7
0.325, -2.265e-7
0.335, -2.285e-7
0.345, -2.245e-7
0.355, -2.245e-7
0.365, -2.334e-7
0.375, -2.275e-7
0.385, -2.324e-7
0.395, -2.285e-7
0.405, -2.285e-7
0.415, -2.275e-7
0.425, -2.255e-7
0.435, -2.255e-7
0.445, -2.255e-7
0.455, -2.255e-7
0.465, -2.285e-7
0.475, -2.265e-7
0.485, -2.285e-7
0.495, -2.334e-7
0.505, -2.265e-7
0.515, -2.275e-7
0.525, -2.275e-7
0.535, -2.314e-7
0.545, -2.324e-7
0.555, -2.334e-7
0.565, -2.324e-7
0.575, -2.324e-7
0.585, -2.334e-7
0.595, -2.334e-7
0.605, -2.285e-7
0.615, -2.295e-7
0.625, -2.275e-7
0.635, -2.393e-7
0.645, -2.363e-7
0.655, -2.373e-7
0.665, -2.285e-7
0.675, -2.314e-7
0.685, -2.275e-7
0.695, -2.275e-7
0.705, -2.285e-7
0.715, -2.255e-7
0.725, -2.275e-7
0.735, -2.265e-7
0.745, -2.255e-7
0.755, -2.314e-7
0.765, -2.314e-7
0.775, -2.304e-7
0.785, -2.363e-7
0.795, -2.353e-7
