May 24, 2025   14:00:13
Cyclic Voltammetry
File: c:\python\win\device_jules\experiment_results\cv_1748066385.bin
Data Source:  Experiment
Instrument Model:  CHI760E
Header: CHI760E CV
Note: 

Init E (V) = 0.8
High E (V) = 0.8
Low E (V) = -1.4
Init P/N = N
Scan Rate (V/s) = 0.2
Segment = 2
Sample Interval (V) = 0.01
Quiet Time (sec) = 2
Sensitivity (A/V) = 0.001

Segment 1:
Ep = 0.495V
ip = -7.367e-9A
Ah = -2.775e-9C

Ep = -0.415V
ip = -6.286e-9A
Ah = -1.994e-9C

Ep = -0.615V
ip = -1.473e-8A
Ah = -3.683e-9C

Ep = -0.865V
ip = -8.840e-9A
Ah = -1.606e-9C

Segment 2:
Potential/V, Current/A

0.795, -2.363e-7
0.785, -2.314e-7
0.775, -2.314e-7
0.765, -2.353e-7
0.755, -2.383e-7
0.745, -2.324e-7
0.735, -2.373e-7
0.725, -2.363e-7
0.715, -2.344e-7
0.705, -2.462e-7
0.695, -2.442e-7
0.685, -2.393e-7
0.675, -2.452e-7
0.665, -2.442e-7
0.655, -2.491e-7
0.645, -2.452e-7
0.635, -2.481e-7
0.625, -2.432e-7
0.615, -2.491e-7
0.605, -2.471e-7
0.595, -2.491e-7
0.585, -2.481e-7
0.575, -2.462e-7
0.565, -2.511e-7
0.555, -2.550e-7
0.545, -2.540e-7
0.535, -2.511e-7
0.525, -2.511e-7
0.515, -2.501e-7
0.505, -2.530e-7
0.495, -2.570e-7
0.485, -2.520e-7
0.475, -2.570e-7
0.465, -2.550e-7
0.455, -2.589e-7
0.445, -2.520e-7
0.435, -2.570e-7
0.425, -2.530e-7
0.415, -2.530e-7
0.405, -2.570e-7
0.395, -2.668e-7
0.385, -2.609e-7
0.375, -2.609e-7
0.365, -2.619e-7
0.355, -2.628e-7
0.345, -2.599e-7
0.335, -2.619e-7
0.325, -2.609e-7
0.315, -2.619e-7
0.305, -2.648e-7
0.295, -2.628e-7
0.285, -2.619e-7
0.275, -2.599e-7
0.265, -2.560e-7
0.255, -2.638e-7
0.245, -2.628e-7
0.235, -2.579e-7
0.225, -2.619e-7
0.215, -2.619e-7
0.205, -2.707e-7
0.195, -2.668e-7
0.185, -2.619e-7
0.175, -2.697e-7
0.165, -2.619e-7
0.155, -2.707e-7
0.145, -2.648e-7
0.135, -2.668e-7
0.125, -2.697e-7
0.115, -2.697e-7
0.105, -2.678e-7
0.095, -2.668e-7
0.085, -2.648e-7
0.075, -2.687e-7
0.065, -2.628e-7
0.055, -2.678e-7
0.045, -2.697e-7
0.035, -2.668e-7
0.025, -2.678e-7
0.015, -2.707e-7
0.005, -2.737e-7
-0.005, -2.727e-7
-0.015, -2.707e-7
-0.025, -2.737e-7
-0.035, -2.697e-7
-0.045, -2.717e-7
-0.055, -2.717e-7
-0.065, -2.717e-7
-0.075, -2.697e-7
-0.085, -2.697e-7
-0.095, -2.697e-7
-0.105, -2.737e-7
-0.115, -2.658e-7
-0.125, -2.668e-7
-0.135, -2.628e-7
-0.145, -2.628e-7
-0.155, -2.658e-7
-0.165, -2.638e-7
-0.175, -2.599e-7
-0.185, -2.619e-7
-0.195, -2.619e-7
-0.205, -2.668e-7
-0.215, -2.668e-7
-0.225, -2.628e-7
-0.235, -2.609e-7
-0.245, -2.658e-7
-0.255, -2.628e-7
-0.265, -2.599e-7
-0.275, -2.619e-7
-0.285, -2.599e-7
-0.295, -2.619e-7
-0.305, -2.609e-7
-0.315, -2.628e-7
-0.325, -2.599e-7
-0.335, -2.648e-7
-0.345, -2.628e-7
-0.355, -2.648e-7
-0.365, -2.638e-7
-0.375, -2.668e-7
-0.385, -2.678e-7
-0.395, -2.678e-7
-0.405, -2.628e-7
-0.415, -2.687e-7
-0.425, -2.678e-7
-0.435, -2.668e-7
-0.445, -2.628e-7
-0.455, -2.609e-7
-0.465, -2.648e-7
-0.475, -2.648e-7
-0.485, -2.658e-7
-0.495, -2.648e-7
-0.505, -2.668e-7
-0.515, -2.628e-7
-0.525, -2.648e-7
-0.535, -2.717e-7
-0.545, -2.668e-7
-0.555, -2.727e-7
-0.565, -2.776e-7
-0.575, -2.776e-7
-0.585, -2.864e-7
-0.595, -2.776e-7
-0.605, -2.825e-7
-0.615, -2.894e-7
-0.625, -2.884e-7
-0.635, -2.835e-7
-0.645, -2.815e-7
-0.655, -2.874e-7
-0.665, -2.805e-7
-0.675, -2.845e-7
-0.685, -2.845e-7
-0.695, -2.825e-7
-0.705, -2.835e-7
-0.715, -2.894e-7
-0.725, -2.884e-7
-0.735, -2.904e-7
-0.745, -2.854e-7
-0.755, -2.825e-7
-0.765, -2.825e-7
-0.775, -2.854e-7
-0.785, -2.854e-7
-0.795, -2.864e-7
-0.805, -2.825e-7
-0.815, -2.884e-7
-0.825, -2.864e-7
-0.835, -2.864e-7
-0.845, -2.874e-7
-0.855, -2.894e-7
-0.865, -2.943e-7
-0.875, -2.943e-7
-0.885, -2.894e-7
-0.895, -2.913e-7
-0.905, -2.933e-7
-0.915, -2.894e-7
-0.925, -2.904e-7
-0.935, -2.884e-7
-0.945, -2.884e-7
-0.955, -2.874e-7
-0.965, -2.884e-7
-0.975, -2.864e-7
-0.985, -2.884e-7
-0.995, -2.904e-7
-1.005, -2.962e-7
-1.015, -2.992e-7
-1.025, -2.923e-7
-1.035, -2.933e-7
-1.045, -2.913e-7
-1.055, -2.913e-7
-1.065, -2.884e-7
-1.075, -2.913e-7
-1.085, -2.884e-7
-1.095, -2.894e-7
-1.105, -2.913e-7
-1.115, -2.874e-7
-1.125, -2.904e-7
-1.135, -2.894e-7
-1.145, -2.894e-7
-1.155, -2.904e-7
-1.165, -2.904e-7
-1.175, -2.933e-7
-1.185, -2.904e-7
-1.195, -2.904e-7
-1.205, -2.884e-7
-1.215, -2.933e-7
-1.225, -2.854e-7
-1.235, -2.943e-7
-1.245, -2.904e-7
-1.255, -2.923e-7
-1.265, -2.962e-7
-1.275, -2.923e-7
-1.285, -2.904e-7
-1.295, -2.943e-7
-1.305, -2.943e-7
-1.315, -2.962e-7
-1.325, -2.874e-7
-1.335, -2.923e-7
-1.345, -2.913e-7
-1.355, -2.933e-7
-1.365, -2.904e-7
-1.375, -2.904e-7
-1.385, -2.982e-7
-1.395, -2.923e-7
-1.395, -2.746e-7
-1.385, -2.707e-7
-1.375, -2.717e-7
-1.365, -2.678e-7
-1.355, -2.697e-7
-1.345, -2.746e-7
-1.335, -2.707e-7
-1.325, -2.697e-7
-1.315, -2.707e-7
-1.305, -2.717e-7
-1.295, -2.697e-7
-1.285, -2.746e-7
-1.275, -2.746e-7
-1.265, -2.746e-7
-1.255, -2.737e-7
-1.245, -2.756e-7
-1.235, -2.746e-7
-1.225, -2.746e-7
-1.215, -2.727e-7
-1.205, -2.746e-7
-1.195, -2.786e-7
-1.185, -2.746e-7
-1.175, -2.727e-7
-1.165, -2.786e-7
-1.155, -2.707e-7
-1.145, -2.756e-7
-1.135, -2.737e-7
-1.125, -2.795e-7
-1.115, -2.756e-7
-1.105, -2.746e-7
-1.095, -2.737e-7
-1.085, -2.746e-7
-1.075, -2.746e-7
-1.065, -2.756e-7
-1.055, -2.737e-7
-1.045, -2.795e-7
-1.035, -2.756e-7
-1.025, -2.776e-7
-1.015, -2.786e-7
-1.005, -2.786e-7
-0.995, -2.766e-7
-0.985, -2.766e-7
-0.975, -2.766e-7
-0.965, -2.766e-7
-0.955, -2.756e-7
-0.945, -2.727e-7
-0.935, -2.795e-7
-0.925, -2.815e-7
-0.915, -2.805e-7
-0.905, -2.756e-7
-0.895, -2.864e-7
-0.885, -2.835e-7
-0.875, -2.825e-7
-0.865, -2.737e-7
-0.855, -2.825e-7
-0.845, -2.854e-7
-0.835, -2.835e-7
-0.825, -2.854e-7
-0.815, -2.756e-7
-0.805, -2.815e-7
-0.795, -2.786e-7
-0.785, -2.786e-7
-0.775, -2.776e-7
-0.765, -2.825e-7
-0.755, -2.835e-7
-0.745, -2.864e-7
-0.735, -2.835e-7
-0.725, -2.864e-7
-0.715, -2.825e-7
-0.705, -2.805e-7
-0.695, -2.766e-7
-0.685, -2.815e-7
-0.675, -2.776e-7
-0.665, -2.786e-7
-0.655, -2.825e-7
-0.645, -2.795e-7
-0.635, -2.746e-7
-0.625, -2.815e-7
-0.615, -2.805e-7
-0.605, -2.825e-7
-0.595, -2.845e-7
-0.585, -2.795e-7
-0.575, -2.864e-7
-0.565, -2.845e-7
-0.555, -2.805e-7
-0.545, -2.756e-7
-0.535, -2.786e-7
-0.525, -2.845e-7
-0.515, -2.845e-7
-0.505, -2.805e-7
-0.495, -2.805e-7
-0.485, -2.786e-7
-0.475, -2.776e-7
-0.465, -2.854e-7
-0.455, -2.786e-7
-0.445, -2.776e-7
-0.435, -2.815e-7
-0.425, -2.864e-7
-0.415, -2.874e-7
-0.405, -2.884e-7
-0.395, -2.864e-7
-0.385, -2.884e-7
-0.375, -2.874e-7
-0.365, -2.805e-7
-0.355, -2.786e-7
-0.345, -2.854e-7
-0.335, -2.825e-7
-0.325, -2.835e-7
-0.315, -2.805e-7
-0.305, -2.835e-7
-0.295, -2.825e-7
-0.285, -2.795e-7
-0.275, -2.815e-7
-0.265, -2.825e-7
-0.255, -2.835e-7
-0.245, -2.854e-7
-0.235, -2.854e-7
-0.225, -2.854e-7
-0.215, -2.904e-7
-0.205, -2.864e-7
-0.195, -2.913e-7
-0.185, -2.835e-7
-0.175, -2.864e-7
-0.165, -2.786e-7
-0.155, -2.805e-7
-0.145, -2.835e-7
-0.135, -2.805e-7
-0.125, -2.795e-7
-0.115, -2.786e-7
-0.105, -2.746e-7
-0.095, -2.717e-7
-0.085, -2.737e-7
-0.075, -2.756e-7
-0.065, -2.756e-7
-0.055, -2.805e-7
-0.045, -2.746e-7
-0.035, -2.707e-7
-0.025, -2.746e-7
-0.015, -2.717e-7
-0.005, -2.746e-7
0.005, -2.648e-7
0.015, -2.707e-7
0.025, -2.638e-7
0.035, -2.648e-7
0.045, -2.638e-7
0.055, -2.678e-7
0.065, -2.737e-7
0.075, -2.648e-7
0.085, -2.707e-7
0.095, -2.707e-7
0.105, -2.727e-7
0.115, -2.707e-7
0.125, -2.717e-7
0.135, -2.717e-7
0.145, -2.668e-7
0.155, -2.658e-7
0.165, -2.638e-7
0.175, -2.658e-7
0.185, -2.697e-7
0.195, -2.697e-7
0.205, -2.697e-7
0.215, -2.550e-7
0.225, -2.628e-7
0.235, -2.658e-7
0.245, -2.658e-7
0.255, -2.628e-7
0.265, -2.707e-7
0.275, -2.668e-7
0.285, -2.707e-7
0.295, -2.707e-7
0.305, -2.727e-7
0.315, -2.756e-7
0.325, -2.697e-7
0.335, -2.707e-7
0.345, -2.717e-7
0.355, -2.737e-7
0.365, -2.717e-7
0.375, -2.776e-7
0.385, -2.746e-7
0.395, -2.746e-7
0.405, -2.756e-7
0.415, -2.786e-7
0.425, -2.825e-7
0.435, -2.805e-7
0.445, -2.756e-7
0.455, -2.815e-7
0.465, -2.805e-7
0.475, -2.825e-7
0.485, -2.894e-7
0.495, -2.854e-7
0.505, -2.854e-7
0.515, -2.825e-7
0.525, -2.835e-7
0.535, -2.845e-7
0.545, -2.845e-7
0.555, -2.864e-7
0.565, -2.854e-7
0.575, -2.894e-7
0.585, -2.884e-7
0.595, -2.904e-7
0.605, -2.953e-7
0.615, -2.864e-7
0.625, -2.913e-7
0.635, -2.854e-7
0.645, -2.825e-7
0.655, -2.795e-7
0.665, -2.845e-7
0.675, -2.854e-7
0.685, -2.795e-7
0.695, -2.825e-7
0.705, -2.845e-7
0.715, -2.864e-7
0.725, -2.864e-7
0.735, -2.854e-7
0.745, -2.874e-7
0.755, -2.854e-7
0.765, -2.894e-7
0.775, -2.825e-7
0.785, -2.874e-7
0.795, -2.854e-7
