May 24, 2025   22:02:06
Cyclic Voltammetry
File: c:\python\win\device_jules\experiment_results\cv_1748095297.bin
Data Source:  Experiment
Instrument Model:  CHI760E
Header: CHI760E CV
Note: 

Init E (V) = 0.8
High E (V) = 0.8
Low E (V) = -1.4
Init P/N = N
Scan Rate (V/s) = 0.2
Segment = 2
Sample Interval (V) = 0.01
Quiet Time (sec) = 2
Sensitivity (A/V) = 0.001

Segment 1:
Ep = 0.135V
ip = -1.493e-8A
Ah = -3.291e-9C

Ep = -0.205V
ip = -2.357e-9A
Ah = -9.233e-10C

Ep = -0.615V
ip = -7.072e-9A
Ah = -7.858e-10C

Ep = -1.045V
ip = -9.233e-9A
Ah = -2.652e-9C

Segment 2:
Potential/V, Current/A

0.795, -5.560e-8
0.785, -5.560e-8
0.775, -5.461e-8
0.765, -5.363e-8
0.755, -4.577e-8
0.745, -4.970e-8
0.735, -5.068e-8
0.725, -5.461e-8
0.715, -5.265e-8
0.705, -5.167e-8
0.695, -5.265e-8
0.685, -5.461e-8
0.675, -5.756e-8
0.665, -5.068e-8
0.655, -5.854e-8
0.645, -5.265e-8
0.635, -5.363e-8
0.625, -5.461e-8
0.615, -5.560e-8
0.605, -5.854e-8
0.595, -5.756e-8
0.585, -6.247e-8
0.575, -6.247e-8
0.565, -6.247e-8
0.555, -5.952e-8
0.545, -5.756e-8
0.535, -6.345e-8
0.525, -6.247e-8
0.515, -6.051e-8
0.505, -5.854e-8
0.495, -6.640e-8
0.485, -6.738e-8
0.475, -6.836e-8
0.465, -6.542e-8
0.455, -6.051e-8
0.445, -6.247e-8
0.435, -5.952e-8
0.425, -6.345e-8
0.415, -6.542e-8
0.405, -6.444e-8
0.395, -6.738e-8
0.385, -7.328e-8
0.375, -7.229e-8
0.365, -7.033e-8
0.355, -7.328e-8
0.345, -7.131e-8
0.335, -7.622e-8
0.325, -7.033e-8
0.315, -7.033e-8
0.305, -7.426e-8
0.295, -7.426e-8
0.285, -7.131e-8
0.275, -7.426e-8
0.265, -7.328e-8
0.255, -7.917e-8
0.245, -7.328e-8
0.235, -7.426e-8
0.225, -7.131e-8
0.215, -7.426e-8
0.205, -7.426e-8
0.195, -7.622e-8
0.185, -8.113e-8
0.175, -7.524e-8
0.165, -8.015e-8
0.155, -8.212e-8
0.145, -8.506e-8
0.135, -8.801e-8
0.125, -8.212e-8
0.115, -8.605e-8
0.105, -7.819e-8
0.095, -8.212e-8
0.085, -8.605e-8
0.075, -8.310e-8
0.065, -8.015e-8
0.055, -8.113e-8
0.045, -8.801e-8
0.035, -8.801e-8
0.025, -8.506e-8
0.015, -8.997e-8
0.005, -8.899e-8
-0.005, -8.997e-8
-0.015, -9.194e-8
-0.025, -9.390e-8
-0.035, -9.783e-8
-0.045, -9.489e-8
-0.055, -9.489e-8
-0.065, -9.980e-8
-0.075, -8.997e-8
-0.085, -9.685e-8
-0.095, -9.096e-8
-0.105, -9.685e-8
-0.115, -9.783e-8
-0.125, -9.783e-8
-0.135, -1.018e-7
-0.145, -9.783e-8
-0.155, -1.018e-7
-0.165, -9.489e-8
-0.175, -1.008e-7
-0.185, -1.018e-7
-0.195, -1.047e-7
-0.205, -1.106e-7
-0.215, -1.057e-7
-0.225, -1.018e-7
-0.235, -1.057e-7
-0.245, -1.027e-7
-0.255, -1.067e-7
-0.265, -1.057e-7
-0.275, -1.027e-7
-0.285, -1.018e-7
-0.295, -1.057e-7
-0.305, -1.027e-7
-0.315, -1.096e-7
-0.325, -1.067e-7
-0.335, -1.135e-7
-0.345, -1.096e-7
-0.355, -1.106e-7
-0.365, -1.096e-7
-0.375, -1.057e-7
-0.385, -1.096e-7
-0.395, -1.027e-7
-0.405, -1.116e-7
-0.415, -1.096e-7
-0.425, -1.077e-7
-0.435, -1.135e-7
-0.445, -1.126e-7
-0.455, -1.096e-7
-0.465, -1.116e-7
-0.475, -1.106e-7
-0.485, -1.096e-7
-0.495, -1.116e-7
-0.505, -1.126e-7
-0.515, -1.116e-7
-0.525, -1.116e-7
-0.535, -1.126e-7
-0.545, -1.106e-7
-0.555, -1.135e-7
-0.565, -1.135e-7
-0.575, -1.135e-7
-0.585, -1.145e-7
-0.595, -1.086e-7
-0.605, -1.135e-7
-0.615, -1.204e-7
-0.625, -1.155e-7
-0.635, -1.145e-7
-0.645, -1.194e-7
-0.655, -1.135e-7
-0.665, -1.126e-7
-0.675, -1.175e-7
-0.685, -1.175e-7
-0.695, -1.214e-7
-0.705, -1.135e-7
-0.715, -1.224e-7
-0.725, -1.175e-7
-0.735, -1.204e-7
-0.745, -1.135e-7
-0.755, -1.204e-7
-0.765, -1.135e-7
-0.775, -1.194e-7
-0.785, -1.234e-7
-0.795, -1.224e-7
-0.805, -1.185e-7
-0.815, -1.194e-7
-0.825, -1.175e-7
-0.835, -1.145e-7
-0.845, -1.214e-7
-0.855, -1.145e-7
-0.865, -1.165e-7
-0.875, -1.263e-7
-0.885, -1.244e-7
-0.895, -1.175e-7
-0.905, -1.214e-7
-0.915, -1.204e-7
-0.925, -1.194e-7
-0.935, -1.283e-7
-0.945, -1.214e-7
-0.955, -1.165e-7
-0.965, -1.253e-7
-0.975, -1.283e-7
-0.985, -1.214e-7
-0.995, -1.194e-7
-1.005, -1.224e-7
-1.015, -1.204e-7
-1.025, -1.253e-7
-1.035, -1.273e-7
-1.045, -1.293e-7
-1.055, -1.185e-7
-1.065, -1.234e-7
-1.075, -1.175e-7
-1.085, -1.214e-7
-1.095, -1.283e-7
-1.105, -1.214e-7
-1.115, -1.214e-7
-1.125, -1.204e-7
-1.135, -1.244e-7
-1.145, -1.253e-7
-1.155, -1.204e-7
-1.165, -1.185e-7
-1.175, -1.214e-7
-1.185, -1.224e-7
-1.195, -1.126e-7
-1.205, -1.145e-7
-1.215, -1.145e-7
-1.225, -1.165e-7
-1.235, -1.214e-7
-1.245, -1.135e-7
-1.255, -1.126e-7
-1.265, -1.155e-7
-1.275, -1.135e-7
-1.285, -1.185e-7
-1.295, -1.155e-7
-1.305, -1.116e-7
-1.315, -1.165e-7
-1.325, -1.185e-7
-1.335, -1.096e-7
-1.345, -1.155e-7
-1.355, -1.135e-7
-1.365, -1.135e-7
-1.375, -1.116e-7
-1.385, -1.175e-7
-1.395, -1.165e-7
-1.395, -9.390e-8
-1.385, -9.489e-8
-1.375, -9.390e-8
-1.365, -9.292e-8
-1.355, -9.194e-8
-1.345, -9.489e-8
-1.335, -9.390e-8
-1.325, -9.980e-8
-1.315, -9.489e-8
-1.305, -9.783e-8
-1.295, -9.292e-8
-1.285, -9.685e-8
-1.275, -9.390e-8
-1.265, -9.685e-8
-1.255, -9.292e-8
-1.245, -9.881e-8
-1.235, -9.587e-8
-1.225, -9.685e-8
-1.215, -9.587e-8
-1.205, -9.783e-8
-1.195, -9.783e-8
-1.185, -9.685e-8
-1.175, -9.587e-8
-1.165, -9.685e-8
-1.155, -9.292e-8
-1.145, -9.685e-8
-1.135, -9.783e-8
-1.125, -9.783e-8
-1.115, -9.489e-8
-1.105, -9.489e-8
-1.095, -9.980e-8
-1.085, -9.783e-8
-1.075, -1.008e-7
-1.065, -1.018e-7
-1.055, -1.067e-7
-1.045, -9.881e-8
-1.035, -1.037e-7
-1.025, -1.057e-7
-1.015, -1.027e-7
-1.005, -9.390e-8
-0.995, -9.783e-8
-0.985, -9.489e-8
-0.975, -1.018e-7
-0.965, -9.980e-8
-0.955, -1.018e-7
-0.945, -9.980e-8
-0.935, -1.027e-7
-0.925, -1.047e-7
-0.915, -1.047e-7
-0.905, -1.027e-7
-0.895, -1.027e-7
-0.885, -1.096e-7
-0.875, -1.096e-7
-0.865, -1.067e-7
-0.855, -1.077e-7
-0.845, -1.077e-7
-0.835, -1.057e-7
-0.825, -1.116e-7
-0.815, -1.116e-7
-0.805, -1.067e-7
-0.795, -1.126e-7
-0.785, -1.057e-7
-0.775, -1.067e-7
-0.765, -1.106e-7
-0.755, -1.037e-7
-0.745, -1.106e-7
-0.735, -1.096e-7
-0.725, -1.096e-7
-0.715, -1.116e-7
-0.705, -1.047e-7
-0.695, -1.116e-7
-0.685, -1.096e-7
-0.675, -1.096e-7
-0.665, -1.116e-7
-0.655, -1.067e-7
-0.645, -1.145e-7
-0.635, -1.126e-7
-0.625, -1.175e-7
-0.615, -1.106e-7
-0.605, -1.106e-7
-0.595, -1.096e-7
-0.585, -1.096e-7
-0.575, -1.175e-7
-0.565, -1.155e-7
-0.555, -1.155e-7
-0.545, -1.185e-7
-0.535, -1.214e-7
-0.525, -1.175e-7
-0.515, -1.155e-7
-0.505, -1.175e-7
-0.495, -1.194e-7
-0.485, -1.155e-7
-0.475, -1.135e-7
-0.465, -1.175e-7
-0.455, -1.185e-7
-0.445, -1.126e-7
-0.435, -1.155e-7
-0.425, -1.185e-7
-0.415, -1.234e-7
-0.405, -1.165e-7
-0.395, -1.214e-7
-0.385, -1.135e-7
-0.375, -1.234e-7
-0.365, -1.175e-7
-0.355, -1.253e-7
-0.345, -1.175e-7
-0.335, -1.253e-7
-0.325, -1.185e-7
-0.315, -1.214e-7
-0.305, -1.214e-7
-0.295, -1.224e-7
-0.285, -1.224e-7
-0.275, -1.194e-7
-0.265, -1.175e-7
-0.255, -1.175e-7
-0.245, -1.165e-7
-0.235, -1.185e-7
-0.225, -1.165e-7
-0.215, -1.214e-7
-0.205, -1.253e-7
-0.195, -1.155e-7
-0.185, -1.194e-7
-0.175, -1.165e-7
-0.165, -1.175e-7
-0.155, -1.204e-7
-0.145, -1.135e-7
-0.135, -1.175e-7
-0.125, -1.175e-7
-0.115, -1.185e-7
-0.105, -1.194e-7
-0.095, -1.185e-7
-0.085, -1.214e-7
-0.075, -1.224e-7
-0.065, -1.175e-7
-0.055, -1.214e-7
-0.045, -1.214e-7
-0.035, -1.204e-7
-0.025, -1.175e-7
-0.015, -1.214e-7
-0.005, -1.214e-7
0.005, -1.135e-7
0.015, -1.096e-7
0.025, -1.135e-7
0.035, -1.224e-7
0.045, -1.185e-7
0.055, -1.126e-7
0.065, -1.185e-7
0.075, -1.185e-7
0.085, -1.204e-7
0.095, -1.204e-7
0.105, -1.175e-7
0.115, -1.145e-7
0.125, -1.165e-7
0.135, -1.214e-7
0.145, -1.224e-7
0.155, -1.175e-7
0.165, -1.244e-7
0.175, -1.234e-7
0.185, -1.234e-7
0.195, -1.185e-7
0.205, -1.204e-7
0.215, -1.253e-7
0.225, -1.234e-7
0.235, -1.175e-7
0.245, -1.214e-7
0.255, -1.214e-7
0.265, -1.244e-7
0.275, -1.175e-7
0.285, -1.204e-7
0.295, -1.224e-7
0.305, -1.214e-7
0.315, -1.155e-7
0.325, -1.175e-7
0.335, -1.253e-7
0.345, -1.234e-7
0.355, -1.273e-7
0.365, -1.253e-7
0.375, -1.224e-7
0.385, -1.283e-7
0.395, -1.244e-7
0.405, -1.263e-7
0.415, -1.175e-7
0.425, -1.175e-7
0.435, -1.155e-7
0.445, -1.214e-7
0.455, -1.165e-7
0.465, -1.155e-7
0.475, -1.165e-7
0.485, -1.244e-7
0.495, -1.234e-7
0.505, -1.273e-7
0.515, -1.234e-7
0.525, -1.214e-7
0.535, -1.204e-7
0.545, -1.135e-7
0.555, -1.204e-7
0.565, -1.194e-7
0.575, -1.165e-7
0.585, -1.224e-7
0.595, -1.214e-7
0.605, -1.185e-7
0.615, -1.234e-7
0.625, -1.135e-7
0.635, -1.175e-7
0.645, -1.155e-7
0.655, -1.175e-7
0.665, -1.175e-7
0.675, -1.214e-7
0.685, -1.214e-7
0.695, -1.175e-7
0.705, -1.135e-7
0.715, -1.234e-7
0.725, -1.165e-7
0.735, -1.194e-7
0.745, -1.214e-7
0.755, -1.194e-7
0.765, -1.185e-7
0.775, -1.204e-7
0.785, -1.185e-7
0.795, -1.185e-7
