May 24, 2025   00:22:52
Cyclic Voltammetry
File: c:\python\win\device_jules\experiment_results\test_cv.bin
Data Source:  Experiment
Instrument Model:  CHI760E
Header: CHI760E CV
Note: 

Init E (V) = -0.5
High E (V) = 0.5
Low E (V) = -0.5
Init P/N = P
Scan Rate (V/s) = 0.1
Segment = 2
Sample Interval (V) = 0.001
Quiet Time (sec) = 2
Sensitivity (A/V) = 1e-5

Segment 1:
Segment 2:

Potential/V, Current/A

-0.500, -1.135e-9
-0.499, -1.833e-9
-0.498, -1.185e-9
-0.497, -1.676e-9
-0.496, -1.165e-9
-0.495, -1.646e-9
-0.494, -1.253e-9
-0.493, -1.774e-9
-0.492, -1.204e-9
-0.491, -1.705e-9
-0.490, -1.077e-9
-0.489, -1.803e-9
-0.488, -1.194e-9
-0.487, -1.803e-9
-0.486, -1.204e-9
-0.485, -1.695e-9
-0.484, -1.234e-9
-0.483, -1.794e-9
-0.482, -1.273e-9
-0.481, -1.764e-9
-0.480, -1.234e-9
-0.479, -1.744e-9
-0.478, -1.185e-9
-0.477, -1.636e-9
-0.476, -1.204e-9
-0.475, -1.774e-9
-0.474, -1.145e-9
-0.473, -1.695e-9
-0.472, -1.293e-9
-0.471, -1.823e-9
-0.470, -1.165e-9
-0.469, -1.695e-9
-0.468, -1.273e-9
-0.467, -1.754e-9
-0.466, -1.224e-9
-0.465, -1.705e-9
-0.464, -1.126e-9
-0.463, -1.774e-9
-0.462, -1.234e-9
-0.461, -1.715e-9
-0.460, -1.116e-9
-0.459, -1.666e-9
-0.458, -1.145e-9
-0.457, -1.646e-9
-0.456, -1.204e-9
-0.455, -1.803e-9
-0.454, -1.185e-9
-0.453, -1.558e-9
-0.452, -1.185e-9
-0.451, -1.735e-9
-0.450, -1.293e-9
-0.449, -1.784e-9
-0.448, -1.224e-9
-0.447, -1.686e-9
-0.446, -1.175e-9
-0.445, -1.695e-9
-0.444, -1.155e-9
-0.443, -1.538e-9
-0.442, -1.312e-9
-0.441, -1.754e-9
-0.440, -1.165e-9
-0.439, -1.676e-9
-0.438, -1.185e-9
-0.437, -1.636e-9
-0.436, -1.234e-9
-0.435, -1.568e-9
-0.434, -1.185e-9
-0.433, -1.715e-9
-0.432, -1.135e-9
-0.431, -1.656e-9
-0.430, -1.312e-9
-0.429, -1.764e-9
-0.428, -1.175e-9
-0.427, -1.686e-9
-0.426, -1.224e-9
-0.425, -1.676e-9
-0.424, -1.194e-9
-0.423, -1.803e-9
-0.422, -1.057e-9
-0.421, -1.656e-9
-0.420, -1.273e-9
-0.419, -1.705e-9
-0.418, -1.204e-9
-0.417, -1.735e-9
-0.416, -1.234e-9
-0.415, -1.784e-9
-0.414, -1.253e-9
-0.413, -1.597e-9
-0.412, -1.224e-9
-0.411, -1.627e-9
-0.410, -1.204e-9
-0.409, -1.489e-9
-0.408, -1.234e-9
-0.407, -1.617e-9
-0.406, -1.037e-9
-0.405, -1.587e-9
-0.404, -1.253e-9
-0.403, -1.627e-9
-0.402, -1.165e-9
-0.401, -1.627e-9
-0.400, -1.234e-9
-0.399, -1.735e-9
-0.398, -1.194e-9
-0.397, -1.803e-9
-0.396, -1.342e-9
-0.395, -1.587e-9
-0.394, -1.135e-9
-0.393, -1.686e-9
-0.392, -1.145e-9
-0.391, -1.577e-9
-0.390, -1.155e-9
-0.389, -1.676e-9
-0.388, -1.214e-9
-0.387, -1.587e-9
-0.386, -1.106e-9
-0.385, -1.695e-9
-0.384, -1.204e-9
-0.383, -1.676e-9
-0.382, -1.204e-9
-0.381, -1.587e-9
-0.380, -1.145e-9
-0.379, -1.509e-9
-0.378, -1.214e-9
-0.377, -1.735e-9
-0.376, -1.165e-9
-0.375, -1.627e-9
-0.374, -1.204e-9
-0.373, -1.617e-9
-0.372, -1.273e-9
-0.371, -1.695e-9
-0.370, -1.263e-9
-0.369, -1.577e-9
-0.368, -1.155e-9
-0.367, -1.627e-9
-0.366, -1.224e-9
-0.365, -1.735e-9
-0.364, -1.155e-9
-0.363, -1.538e-9
-0.362, -1.165e-9
-0.361, -1.489e-9
-0.360, -1.253e-9
-0.359, -1.617e-9
-0.358, -1.185e-9
-0.357, -1.686e-9
-0.356, -1.126e-9
-0.355, -1.469e-9
-0.354, -1.145e-9
-0.353, -1.440e-9
-0.352, -1.175e-9
-0.351, -1.577e-9
-0.350, -1.067e-9
-0.349, -1.548e-9
-0.348, -1.185e-9
-0.347, -1.509e-9
-0.346, -1.135e-9
-0.345, -1.509e-9
-0.344, -1.165e-9
-0.343, -1.509e-9
-0.342, -1.106e-9
-0.341, -1.519e-9
-0.340, -1.253e-9
-0.339, -1.499e-9
-0.338, -1.273e-9
-0.337, -1.450e-9
-0.336, -1.204e-9
-0.335, -1.577e-9
-0.334, -1.185e-9
-0.333, -1.430e-9
-0.332, -1.165e-9
-0.331, -1.587e-9
-0.330, -1.283e-9
-0.329, -1.558e-9
-0.328, -1.283e-9
-0.327, -1.587e-9
-0.326, -1.175e-9
-0.325, -1.499e-9
-0.324, -1.273e-9
-0.323, -1.528e-9
-0.322, -1.224e-9
-0.321, -1.401e-9
-0.320, -1.273e-9
-0.319, -1.519e-9
-0.318, -1.175e-9
-0.317, -1.695e-9
-0.316, -1.165e-9
-0.315, -1.627e-9
-0.314, -1.244e-9
-0.313, -1.440e-9
-0.312, -1.302e-9
-0.311, -1.440e-9
-0.310, -1.116e-9
-0.309, -1.450e-9
-0.308, -1.273e-9
-0.307, -1.568e-9
-0.306, -1.165e-9
-0.305, -1.420e-9
-0.304, -1.194e-9
-0.303, -1.499e-9
-0.302, -1.224e-9
-0.301, -1.587e-9
-0.300, -1.135e-9
-0.299, -1.577e-9
-0.298, -1.214e-9
-0.297, -1.548e-9
-0.296, -1.165e-9
-0.295, -1.479e-9
-0.294, -1.126e-9
-0.293, -1.548e-9
-0.292, -1.234e-9
-0.291, -1.509e-9
-0.290, -1.214e-9
-0.289, -1.440e-9
-0.288, -1.194e-9
-0.287, -1.577e-9
-0.286, -1.165e-9
-0.285, -1.509e-9
-0.284, -1.067e-9
-0.283, -1.607e-9
-0.282, -1.283e-9
-0.281, -1.519e-9
-0.280, -1.302e-9
-0.279, -1.558e-9
-0.278, -1.312e-9
-0.277, -1.489e-9
-0.276, -1.096e-9
-0.275, -1.558e-9
-0.274, -1.214e-9
-0.273, -1.469e-9
-0.272, -1.283e-9
-0.271, -1.558e-9
-0.270, -1.096e-9
-0.269, -1.460e-9
-0.268, -1.194e-9
-0.267, -1.450e-9
-0.266, -1.077e-9
-0.265, -1.548e-9
-0.264, -1.185e-9
-0.263, -1.430e-9
-0.262, -1.273e-9
-0.261, -1.509e-9
-0.260, -1.194e-9
-0.259, -1.548e-9
-0.258, -1.185e-9
-0.257, -1.548e-9
-0.256, -1.135e-9
-0.255, -1.509e-9
-0.254, -1.194e-9
-0.253, -1.391e-9
-0.252, -1.116e-9
-0.251, -1.499e-9
-0.250, -1.302e-9
-0.249, -1.538e-9
-0.248, -1.214e-9
-0.247, -1.509e-9
-0.246, -1.283e-9
-0.245, -1.499e-9
-0.244, -1.165e-9
-0.243, -1.440e-9
-0.242, -1.165e-9
-0.241, -1.499e-9
-0.240, -1.194e-9
-0.239, -1.519e-9
-0.238, -1.253e-9
-0.237, -1.352e-9
-0.236, -1.214e-9
-0.235, -1.489e-9
-0.234, -1.185e-9
-0.233, -1.450e-9
-0.232, -1.185e-9
-0.231, -1.469e-9
-0.230, -1.165e-9
-0.229, -1.460e-9
-0.228, -1.253e-9
-0.227, -1.558e-9
-0.226, -1.057e-9
-0.225, -1.440e-9
-0.224, -1.302e-9
-0.223, -1.509e-9
-0.222, -1.185e-9
-0.221, -1.411e-9
-0.220, -1.175e-9
-0.219, -1.587e-9
-0.218, -1.273e-9
-0.217, -1.479e-9
-0.216, -1.145e-9
-0.215, -1.558e-9
-0.214, -1.224e-9
-0.213, -1.469e-9
-0.212, -1.145e-9
-0.211, -1.391e-9
-0.210, -1.263e-9
-0.209, -1.460e-9
-0.208, -1.175e-9
-0.207, -1.489e-9
-0.206, -1.342e-9
-0.205, -1.460e-9
-0.204, -1.135e-9
-0.203, -1.430e-9
-0.202, -1.194e-9
-0.201, -1.499e-9
-0.200, -1.145e-9
-0.199, -1.538e-9
-0.198, -1.283e-9
-0.197, -1.352e-9
-0.196, -1.096e-9
-0.195, -1.411e-9
-0.194, -1.155e-9
-0.193, -1.411e-9
-0.192, -1.194e-9
-0.191, -1.460e-9
-0.190, -1.234e-9
-0.189, -1.499e-9
-0.188, -1.253e-9
-0.187, -1.479e-9
-0.186, -1.155e-9
-0.185, -1.489e-9
-0.184, -1.096e-9
-0.183, -1.479e-9
-0.182, -1.263e-9
-0.181, -1.469e-9
-0.180, -1.273e-9
-0.179, -1.322e-9
-0.178, -1.224e-9
-0.177, -1.489e-9
-0.176, -1.165e-9
-0.175, -1.519e-9
-0.174, -1.244e-9
-0.173, -1.283e-9
-0.172, -1.263e-9
-0.171, -1.538e-9
-0.170, -1.352e-9
-0.169, -1.479e-9
-0.168, -1.253e-9
-0.167, -1.607e-9
-0.166, -1.175e-9
-0.165, -1.332e-9
-0.164, -1.234e-9
-0.163, -1.371e-9
-0.162, -1.194e-9
-0.161, -1.450e-9
-0.160, -1.204e-9
-0.159, -1.509e-9
-0.158, -1.342e-9
-0.157, -1.420e-9
-0.156, -1.371e-9
-0.155, -1.469e-9
-0.154, -1.352e-9
-0.153, -1.469e-9
-0.152, -1.135e-9
-0.151, -1.558e-9
-0.150, -1.204e-9
-0.149, -1.450e-9
-0.148, -1.204e-9
-0.147, -1.391e-9
-0.146, -1.175e-9
-0.145, -1.460e-9
-0.144, -1.204e-9
-0.143, -1.548e-9
-0.142, -1.312e-9
-0.141, -1.528e-9
-0.140, -1.234e-9
-0.139, -1.568e-9
-0.138, -1.175e-9
-0.137, -1.499e-9
-0.136, -1.155e-9
-0.135, -1.528e-9
-0.134, -1.302e-9
-0.133, -1.528e-9
-0.132, -1.253e-9
-0.131, -1.469e-9
-0.130, -1.293e-9
-0.129, -1.656e-9
-0.128, -1.293e-9
-0.127, -1.460e-9
-0.126, -1.214e-9
-0.125, -1.401e-9
-0.124, -1.204e-9
-0.123, -1.548e-9
-0.122, -1.244e-9
-0.121, -1.558e-9
-0.120, -1.302e-9
-0.119, -1.548e-9
-0.118, -1.224e-9
-0.117, -1.440e-9
-0.116, -1.234e-9
-0.115, -1.469e-9
-0.114, -1.391e-9
-0.113, -1.577e-9
-0.112, -1.234e-9
-0.111, -1.528e-9
-0.110, -1.332e-9
-0.109, -1.312e-9
-0.108, -1.263e-9
-0.107, -1.469e-9
-0.106, -1.224e-9
-0.105, -1.528e-9
-0.104, -1.273e-9
-0.103, -1.499e-9
-0.102, -1.126e-9
-0.101, -1.489e-9
-0.100, -1.194e-9
-0.099, -1.460e-9
-0.098, -1.244e-9
-0.097, -1.401e-9
-0.096, -1.165e-9
-0.095, -1.538e-9
-0.094, -1.175e-9
-0.093, -1.342e-9
-0.092, -1.273e-9
-0.091, -1.538e-9
-0.090, -1.234e-9
-0.089, -1.479e-9
-0.088, -1.018e-9
-0.087, -1.538e-9
-0.086, -1.204e-9
-0.085, -1.352e-9
-0.084, -1.185e-9
-0.083, -1.430e-9
-0.082, -1.293e-9
-0.081, -1.499e-9
-0.080, -1.244e-9
-0.079, -1.509e-9
-0.078, -1.145e-9
-0.077, -1.568e-9
-0.076, -1.234e-9
-0.075, -1.528e-9
-0.074, -1.175e-9
-0.073, -1.411e-9
-0.072, -1.214e-9
-0.071, -1.568e-9
-0.070, -1.234e-9
-0.069, -1.460e-9
-0.068, -1.214e-9
-0.067, -1.352e-9
-0.066, -1.263e-9
-0.065, -1.597e-9
-0.064, -1.175e-9
-0.063, -1.528e-9
-0.062, -1.126e-9
-0.061, -1.548e-9
-0.060, -1.234e-9
-0.059, -1.568e-9
-0.058, -1.194e-9
-0.057, -1.509e-9
-0.056, -1.244e-9
-0.055, -1.469e-9
-0.054, -1.293e-9
-0.053, -1.548e-9
-0.052, -1.224e-9
-0.051, -1.597e-9
-0.050, -1.332e-9
-0.049, -1.519e-9
-0.048, -1.253e-9
-0.047, -1.450e-9
-0.046, -1.086e-9
-0.045, -1.469e-9
-0.044, -1.293e-9
-0.043, -1.528e-9
-0.042, -1.224e-9
-0.041, -1.391e-9
-0.040, -1.194e-9
-0.039, -1.587e-9
-0.038, -1.234e-9
-0.037, -1.548e-9
-0.036, -1.224e-9
-0.035, -1.489e-9
-0.034, -1.273e-9
-0.033, -1.489e-9
-0.032, -1.224e-9
-0.031, -1.489e-9
-0.030, -1.352e-9
-0.029, -1.646e-9
-0.028, -1.263e-9
-0.027, -1.597e-9
-0.026, -1.155e-9
-0.025, -1.420e-9
-0.024, -1.135e-9
-0.023, -1.538e-9
-0.022, -1.312e-9
-0.021, -1.469e-9
-0.020, -1.332e-9
-0.019, -1.538e-9
-0.018, -1.244e-9
-0.017, -1.469e-9
-0.016, -1.263e-9
-0.015, -1.440e-9
-0.014, -1.165e-9
-0.013, -1.489e-9
-0.012, -1.293e-9
-0.011, -1.460e-9
-0.010, -1.096e-9
-0.009, -1.528e-9
-0.008, -1.253e-9
-0.007, -1.509e-9
-0.006, -1.253e-9
-0.005, -1.430e-9
-0.004, -1.371e-9
-0.003, -1.558e-9
-0.002, -1.204e-9
-0.001, -1.548e-9
0.000, -1.027e-9
0.001, -1.509e-9
0.002, -1.096e-9
0.003, -1.411e-9
0.004, -1.018e-9
0.005, -1.430e-9
0.006, -1.185e-9
0.007, -1.489e-9
0.008, -1.263e-9
0.009, -1.528e-9
0.010, -1.096e-9
0.011, -1.558e-9
0.012, -1.175e-9
0.013, -1.489e-9
0.014, -1.096e-9
0.015, -1.371e-9
0.016, -1.116e-9
0.017, -1.469e-9
0.018, -1.253e-9
0.019, -1.440e-9
0.020, -1.008e-9
0.021, -1.656e-9
0.022, -1.057e-9
0.023, -1.460e-9
0.024, -1.135e-9
0.025, -1.509e-9
0.026, -1.165e-9
0.027, -1.450e-9
0.028, -1.155e-9
0.029, -1.509e-9
0.030, -1.106e-9
0.031, -1.499e-9
0.032, -1.175e-9
0.033, -1.499e-9
0.034, -1.204e-9
0.035, -1.499e-9
0.036, -1.253e-9
0.037, -1.627e-9
0.038, -1.302e-9
0.039, -1.509e-9
0.040, -1.165e-9
0.041, -1.479e-9
0.042, -1.332e-9
0.043, -1.519e-9
0.044, -1.302e-9
0.045, -1.528e-9
0.046, -1.234e-9
0.047, -1.558e-9
0.048, -1.135e-9
0.049, -1.489e-9
0.050, -1.126e-9
0.051, -1.460e-9
0.052, -1.155e-9
0.053, -1.509e-9
0.054, -1.116e-9
0.055, -1.479e-9
0.056, -9.881e-10
0.057, -1.528e-9
0.058, -1.145e-9
0.059, -1.538e-9
0.060, -1.106e-9
0.061, -1.420e-9
0.062, -1.135e-9
0.063, -1.528e-9
0.064, -1.145e-9
0.065, -1.558e-9
0.066, -9.783e-10
0.067, -1.538e-9
0.068, -1.244e-9
0.069, -1.558e-9
0.070, -1.204e-9
0.071, -1.430e-9
0.072, -1.077e-9
0.073, -1.519e-9
0.074, -1.194e-9
0.075, -1.646e-9
0.076, -1.047e-9
0.077, -1.627e-9
0.078, -1.135e-9
0.079, -1.548e-9
0.080, -1.135e-9
0.081, -1.469e-9
0.082, -1.106e-9
0.083, -1.499e-9
0.084, -1.116e-9
0.085, -1.558e-9
0.086, -1.106e-9
0.087, -1.577e-9
0.088, -1.234e-9
0.089, -1.528e-9
0.090, -1.116e-9
0.091, -1.519e-9
0.092, -1.145e-9
0.093, -1.577e-9
0.094, -1.244e-9
0.095, -1.577e-9
0.096, -1.214e-9
0.097, -1.440e-9
0.098, -1.185e-9
0.099, -1.646e-9
0.100, -1.106e-9
0.101, -1.450e-9
0.102, -1.126e-9
0.103, -1.548e-9
0.104, -1.175e-9
0.105, -1.656e-9
0.106, -1.086e-9
0.107, -1.568e-9
0.108, -1.175e-9
0.109, -1.666e-9
0.110, -1.135e-9
0.111, -1.519e-9
0.112, -1.283e-9
0.113, -1.558e-9
0.114, -1.145e-9
0.115, -1.577e-9
0.116, -1.116e-9
0.117, -1.519e-9
0.118, -1.155e-9
0.119, -1.577e-9
0.120, -1.175e-9
0.121, -1.538e-9
0.122, -1.145e-9
0.123, -1.686e-9
0.124, -1.165e-9
0.125, -1.597e-9
0.126, -1.077e-9
0.127, -1.607e-9
0.128, -1.194e-9
0.129, -1.636e-9
0.130, -1.194e-9
0.131, -1.607e-9
0.132, -9.881e-10
0.133, -1.705e-9
0.134, -1.145e-9
0.135, -1.636e-9
0.136, -1.155e-9
0.137, -1.460e-9
0.138, -1.106e-9
0.139, -1.646e-9
0.140, -1.194e-9
0.141, -1.686e-9
0.142, -1.135e-9
0.143, -1.705e-9
0.144, -1.155e-9
0.145, -1.587e-9
0.146, -1.194e-9
0.147, -1.440e-9
0.148, -1.155e-9
0.149, -1.705e-9
0.150, -1.145e-9
0.151, -1.577e-9
0.152, -1.047e-9
0.153, -1.627e-9
0.154, -1.116e-9
0.155, -1.577e-9
0.156, -1.047e-9
0.157, -1.509e-9
0.158, -1.106e-9
0.159, -1.587e-9
0.160, -1.165e-9
0.161, -1.627e-9
0.162, -9.980e-10
0.163, -1.705e-9
0.164, -1.116e-9
0.165, -1.656e-9
0.166, -1.126e-9
0.167, -1.627e-9
0.168, -1.244e-9
0.169, -1.577e-9
0.170, -1.145e-9
0.171, -1.705e-9
0.172, -1.047e-9
0.173, -1.666e-9
0.174, -1.145e-9
0.175, -1.705e-9
0.176, -1.037e-9
0.177, -1.656e-9
0.178, -1.096e-9
0.179, -1.607e-9
0.180, -1.106e-9
0.181, -1.666e-9
0.182, -1.077e-9
0.183, -1.597e-9
0.184, -1.165e-9
0.185, -1.686e-9
0.186, -1.204e-9
0.187, -1.577e-9
0.188, -1.037e-9
0.189, -1.568e-9
0.190, -1.145e-9
0.191, -1.725e-9
0.192, -1.126e-9
0.193, -1.528e-9
0.194, -1.145e-9
0.195, -1.754e-9
0.196, -1.204e-9
0.197, -1.744e-9
0.198, -1.077e-9
0.199, -1.715e-9
0.200, -1.204e-9
0.201, -1.705e-9
0.202, -1.145e-9
0.203, -1.587e-9
0.204, -1.165e-9
0.205, -1.666e-9
0.206, -1.135e-9
0.207, -1.568e-9
0.208, -1.018e-9
0.209, -1.617e-9
0.210, -1.106e-9
0.211, -1.754e-9
0.212, -1.086e-9
0.213, -1.607e-9
0.214, -1.027e-9
0.215, -1.656e-9
0.216, -1.057e-9
0.217, -1.725e-9
0.218, -9.881e-10
0.219, -1.627e-9
0.220, -1.155e-9
0.221, -1.597e-9
0.222, -1.027e-9
0.223, -1.617e-9
0.224, -9.783e-10
0.225, -1.587e-9
0.226, -1.018e-9
0.227, -1.646e-9
0.228, -1.077e-9
0.229, -1.666e-9
0.230, -1.155e-9
0.231, -1.705e-9
0.232, -1.096e-9
0.233, -1.676e-9
0.234, -9.587e-10
0.235, -1.744e-9
0.236, -1.116e-9
0.237, -1.764e-9
0.238, -9.881e-10
0.239, -1.607e-9
0.240, -1.018e-9
0.241, -1.597e-9
0.242, -1.106e-9
0.243, -1.686e-9
0.244, -1.057e-9
0.245, -1.764e-9
0.246, -1.057e-9
0.247, -1.676e-9
0.248, -1.077e-9
0.249, -1.695e-9
0.250, -1.135e-9
0.251, -1.725e-9
0.252, -1.057e-9
0.253, -1.803e-9
0.254, -1.018e-9
0.255, -1.509e-9
0.256, -1.027e-9
0.257, -1.676e-9
0.258, -1.018e-9
0.259, -1.607e-9
0.260, -1.018e-9
0.261, -1.686e-9
0.262, -1.116e-9
0.263, -1.686e-9
0.264, -1.106e-9
0.265, -1.646e-9
0.266, -1.037e-9
0.267, -1.784e-9
0.268, -1.096e-9
0.269, -1.843e-9
0.270, -9.980e-10
0.271, -1.744e-9
0.272, -1.165e-9
0.273, -1.784e-9
0.274, -1.086e-9
0.275, -1.587e-9
0.276, -1.096e-9
0.277, -1.784e-9
0.278, -1.018e-9
0.279, -1.754e-9
0.280, -9.292e-10
0.281, -1.853e-9
0.282, -1.077e-9
0.283, -1.636e-9
0.284, -9.980e-10
0.285, -1.695e-9
0.286, -9.489e-10
0.287, -1.754e-9
0.288, -1.047e-9
0.289, -1.794e-9
0.290, -9.980e-10
0.291, -1.577e-9
0.292, -1.018e-9
0.293, -1.803e-9
0.294, -9.489e-10
0.295, -1.754e-9
0.296, -8.997e-10
0.297, -1.705e-9
0.298, -1.047e-9
0.299, -1.774e-9
0.300, -1.135e-9
0.301, -1.695e-9
0.302, -1.057e-9
0.303, -1.803e-9
0.304, -1.008e-9
0.305, -1.705e-9
0.306, -9.587e-10
0.307, -1.744e-9
0.308, -9.096e-10
0.309, -1.784e-9
0.310, -9.881e-10
0.311, -1.735e-9
0.312, -9.881e-10
0.313, -1.676e-9
0.314, -1.027e-9
0.315, -1.902e-9
0.316, -9.194e-10
0.317, -1.754e-9
0.318, -9.881e-10
0.319, -1.754e-9
0.320, -9.390e-10
0.321, -1.656e-9
0.322, -9.194e-10
0.323, -1.803e-9
0.324, -9.783e-10
0.325, -1.764e-9
0.326, -1.047e-9
0.327, -1.715e-9
0.328, -1.077e-9
0.329, -1.843e-9
0.330, -1.027e-9
0.331, -1.843e-9
0.332, -8.997e-10
0.333, -1.784e-9
0.334, -9.881e-10
0.335, -1.862e-9
0.336, -1.037e-9
0.337, -1.686e-9
0.338, -1.037e-9
0.339, -1.882e-9
0.340, -1.008e-9
0.341, -1.794e-9
0.342, -9.489e-10
0.343, -1.843e-9
0.344, -1.018e-9
0.345, -1.784e-9
0.346, -9.685e-10
0.347, -1.754e-9
0.348, -1.057e-9
0.349, -1.813e-9
0.350, -1.106e-9
0.351, -1.853e-9
0.352, -9.194e-10
0.353, -1.882e-9
0.354, -9.587e-10
0.355, -1.921e-9
0.356, -1.135e-9
0.357, -1.744e-9
0.358, -1.018e-9
0.359, -1.882e-9
0.360, -1.027e-9
0.361, -1.921e-9
0.362, -8.506e-10
0.363, -1.784e-9
0.364, -9.390e-10
0.365, -1.764e-9
0.366, -8.703e-10
0.367, -1.833e-9
0.368, -9.980e-10
0.369, -2.000e-9
0.370, -9.980e-10
0.371, -1.882e-9
0.372, -1.067e-9
0.373, -1.902e-9
0.374, -1.086e-9
0.375, -1.843e-9
0.376, -9.194e-10
0.377, -1.902e-9
0.378, -8.605e-10
0.379, -1.744e-9
0.380, -1.067e-9
0.381, -1.990e-9
0.382, -1.018e-9
0.383, -1.882e-9
0.384, -9.881e-10
0.385, -1.862e-9
0.386, -1.037e-9
0.387, -1.970e-9
0.388, -8.015e-10
0.389, -1.902e-9
0.390, -9.292e-10
0.391, -1.902e-9
0.392, -9.587e-10
0.393, -1.754e-9
0.394, -8.997e-10
0.395, -1.961e-9
0.396, -9.194e-10
0.397, -1.951e-9
0.398, -8.703e-10
0.399, -1.892e-9
0.400, -9.390e-10
0.401, -2.029e-9
0.402, -9.881e-10
0.403, -1.911e-9
0.404, -8.605e-10
0.405, -1.961e-9
0.406, -9.980e-10
0.407, -1.970e-9
0.408, -1.057e-9
0.409, -1.862e-9
0.410, -8.605e-10
0.411, -2.029e-9
0.412, -8.899e-10
0.413, -1.970e-9
0.414, -7.622e-10
0.415, -1.833e-9
0.416, -9.194e-10
0.417, -1.951e-9
0.418, -8.506e-10
0.419, -1.823e-9
0.420, -8.212e-10
0.421, -1.882e-9
0.422, -9.390e-10
0.423, -1.882e-9
0.424, -7.819e-10
0.425, -1.921e-9
0.426, -7.721e-10
0.427, -1.892e-9
0.428, -9.194e-10
0.429, -1.911e-9
0.430, -8.801e-10
0.431, -1.902e-9
0.432, -8.408e-10
0.433, -1.941e-9
0.434, -7.917e-10
0.435, -1.931e-9
0.436, -9.587e-10
0.437, -1.931e-9
0.438, -9.390e-10
0.439, -1.853e-9
0.440, -8.801e-10
0.441, -1.970e-9
0.442, -8.113e-10
0.443, -2.000e-9
0.444, -9.292e-10
0.445, -1.853e-9
0.446, -8.899e-10
0.447, -1.941e-9
0.448, -8.310e-10
0.449, -2.000e-9
0.450, -7.426e-10
0.451, -1.931e-9
0.452, -9.292e-10
0.453, -2.039e-9
0.454, -8.703e-10
0.455, -1.902e-9
0.456, -8.506e-10
0.457, -1.990e-9
0.458, -7.917e-10
0.459, -2.059e-9
0.460, -7.917e-10
0.461, -2.069e-9
0.462, -7.524e-10
0.463, -1.882e-9
0.464, -8.113e-10
0.465, -1.872e-9
0.466, -9.194e-10
0.467, -1.990e-9
0.468, -7.721e-10
0.469, -2.039e-9
0.470, -7.917e-10
0.471, -2.157e-9
0.472, -8.310e-10
0.473, -1.921e-9
0.474, -7.721e-10
0.475, -1.990e-9
0.476, -8.015e-10
0.477, -1.980e-9
0.478, -8.113e-10
0.479, -2.059e-9
0.480, -8.212e-10
0.481, -2.059e-9
0.482, -7.426e-10
0.483, -2.147e-9
0.484, -8.015e-10
0.485, -2.010e-9
0.486, -7.721e-10
0.487, -1.970e-9
0.488, -7.721e-10
0.489, -2.157e-9
0.490, -7.917e-10
0.491, -2.029e-9
0.492, -7.721e-10
0.493, -2.059e-9
0.494, -7.917e-10
0.495, -2.069e-9
0.496, -8.015e-10
0.497, -2.098e-9
0.498, -8.408e-10
0.499, -2.098e-9
0.500, -9.587e-10
0.499, -2.265e-9
0.498, -1.037e-9
0.497, -2.255e-9
0.496, -1.027e-9
0.495, -2.285e-9
0.494, -9.587e-10
0.493, -2.383e-9
0.492, -1.067e-9
0.491, -2.324e-9
0.490, -9.489e-10
0.489, -2.216e-9
0.488, -9.783e-10
0.487, -2.275e-9
0.486, -9.587e-10
0.485, -2.216e-9
0.484, -8.703e-10
0.483, -2.265e-9
0.482, -1.077e-9
0.481, -2.295e-9
0.480, -9.489e-10
0.479, -2.295e-9
0.478, -9.587e-10
0.477, -2.353e-9
0.476, -9.980e-10
0.475, -2.216e-9
0.474, -9.980e-10
0.473, -2.304e-9
0.472, -1.047e-9
0.471, -2.324e-9
0.470, -8.310e-10
0.469, -2.344e-9
0.468, -8.801e-10
0.467, -2.393e-9
0.466, -9.685e-10
0.465, -2.383e-9
0.464, -1.057e-9
0.463, -2.363e-9
0.462, -9.292e-10
0.461, -2.383e-9
0.460, -9.783e-10
0.459, -2.511e-9
0.458, -9.881e-10
0.457, -2.334e-9
0.456, -1.057e-9
0.455, -2.334e-9
0.454, -1.126e-9
0.453, -2.471e-9
0.452, -9.390e-10
0.451, -2.471e-9
0.450, -9.390e-10
0.449, -2.501e-9
0.448, -1.008e-9
0.447, -2.481e-9
0.446, -1.018e-9
0.445, -2.412e-9
0.444, -9.292e-10
0.443, -2.432e-9
0.442, -8.801e-10
0.441, -2.462e-9
0.440, -9.980e-10
0.439, -2.393e-9
0.438, -1.077e-9
0.437, -2.530e-9
0.436, -9.980e-10
0.435, -2.530e-9
0.434, -8.408e-10
0.433, -2.393e-9
0.432, -9.685e-10
0.431, -2.422e-9
0.430, -8.801e-10
0.429, -2.393e-9
0.428, -9.096e-10
0.427, -2.412e-9
0.426, -9.194e-10
0.425, -2.462e-9
0.424, -8.605e-10
0.423, -2.462e-9
0.422, -9.292e-10
0.421, -2.501e-9
0.420, -9.587e-10
0.419, -2.403e-9
0.418, -9.096e-10
0.417, -2.481e-9
0.416, -8.113e-10
0.415, -2.422e-9
0.414, -7.917e-10
0.413, -2.275e-9
0.412, -9.194e-10
0.411, -2.383e-9
0.410, -8.310e-10
0.409, -2.452e-9
0.408, -8.015e-10
0.407, -2.520e-9
0.406, -8.801e-10
0.405, -2.471e-9
0.404, -9.096e-10
0.403, -2.422e-9
0.402, -8.997e-10
0.401, -2.373e-9
0.400, -9.685e-10
0.399, -2.520e-9
0.398, -7.426e-10
0.397, -2.491e-9
0.396, -9.489e-10
0.395, -2.432e-9
0.394, -8.408e-10
0.393, -2.491e-9
0.392, -8.605e-10
0.391, -2.570e-9
0.390, -8.408e-10
0.389, -2.520e-9
0.388, -8.310e-10
0.387, -2.609e-9
0.386, -8.997e-10
0.385, -2.501e-9
0.384, -8.212e-10
0.383, -2.452e-9
0.382, -8.113e-10
0.381, -2.540e-9
0.380, -7.721e-10
0.379, -2.540e-9
0.378, -6.345e-10
0.377, -2.570e-9
0.376, -8.506e-10
0.375, -2.481e-9
0.374, -8.310e-10
0.373, -2.501e-9
0.372, -8.212e-10
0.371, -2.609e-9
0.370, -8.212e-10
0.369, -2.344e-9
0.368, -6.738e-10
0.367, -2.442e-9
0.366, -7.426e-10
0.365, -2.530e-9
0.364, -8.506e-10
0.363, -2.501e-9
0.362, -7.033e-10
0.361, -2.570e-9
0.360, -8.015e-10
0.359, -2.609e-9
0.358, -8.310e-10
0.357, -2.422e-9
0.356, -8.310e-10
0.355, -2.432e-9
0.354, -8.212e-10
0.353, -2.648e-9
0.352, -7.426e-10
0.351, -2.697e-9
0.350, -7.033e-10
0.349, -2.511e-9
0.348, -8.506e-10
0.347, -2.462e-9
0.346, -8.212e-10
0.345, -2.570e-9
0.344, -6.836e-10
0.343, -2.570e-9
0.342, -6.738e-10
0.341, -2.511e-9
0.340, -8.015e-10
0.339, -2.540e-9
0.338, -7.524e-10
0.337, -2.511e-9
0.336, -7.819e-10
0.335, -2.658e-9
0.334, -7.721e-10
0.333, -2.540e-9
0.332, -7.524e-10
0.331, -2.570e-9
0.330, -8.113e-10
0.329, -2.628e-9
0.328, -7.622e-10
0.327, -2.530e-9
0.326, -7.819e-10
0.325, -2.511e-9
0.324, -7.524e-10
0.323, -2.638e-9
0.322, -7.721e-10
0.321, -2.668e-9
0.320, -7.524e-10
0.319, -2.589e-9
0.318, -8.113e-10
0.317, -2.589e-9
0.316, -8.015e-10
0.315, -2.609e-9
0.314, -7.328e-10
0.313, -2.658e-9
0.312, -6.640e-10
0.311, -2.638e-9
0.310, -6.640e-10
0.309, -2.619e-9
0.308, -7.426e-10
0.307, -2.687e-9
0.306, -7.524e-10
0.305, -2.628e-9
0.304, -7.426e-10
0.303, -2.687e-9
0.302, -6.738e-10
0.301, -2.835e-9
0.300, -7.721e-10
0.299, -2.766e-9
0.298, -7.131e-10
0.297, -2.678e-9
0.296, -7.721e-10
0.295, -2.727e-9
0.294, -7.426e-10
0.293, -2.727e-9
0.292, -7.229e-10
0.291, -2.746e-9
0.290, -6.738e-10
0.289, -2.697e-9
0.288, -6.738e-10
0.287, -2.678e-9
0.286, -7.033e-10
0.285, -2.766e-9
0.284, -6.345e-10
0.283, -2.697e-9
0.282, -5.560e-10
0.281, -2.717e-9
0.280, -7.328e-10
0.279, -2.746e-9
0.278, -6.836e-10
0.277, -2.668e-9
0.276, -6.444e-10
0.275, -2.707e-9
0.274, -6.149e-10
0.273, -2.678e-9
0.272, -5.461e-10
0.271, -2.737e-9
0.270, -7.131e-10
0.269, -2.795e-9
0.268, -7.033e-10
0.267, -2.668e-9
0.266, -7.033e-10
0.265, -2.746e-9
0.264, -7.033e-10
0.263, -2.746e-9
0.262, -5.756e-10
0.261, -2.707e-9
0.260, -6.247e-10
0.259, -2.805e-9
0.258, -6.345e-10
0.257, -2.825e-9
0.256, -5.854e-10
0.255, -2.746e-9
0.254, -6.640e-10
0.253, -2.795e-9
0.252, -6.640e-10
0.251, -2.687e-9
0.250, -7.426e-10
0.249, -2.835e-9
0.248, -5.363e-10
0.247, -2.835e-9
0.246, -5.265e-10
0.245, -2.874e-9
0.244, -5.363e-10
0.243, -2.854e-9
0.242, -6.444e-10
0.241, -2.766e-9
0.240, -7.819e-10
0.239, -2.962e-9
0.238, -5.658e-10
0.237, -2.864e-9
0.236, -5.658e-10
0.235, -2.825e-9
0.234, -6.836e-10
0.233, -2.795e-9
0.232, -5.854e-10
0.231, -2.795e-9
0.230, -6.247e-10
0.229, -2.815e-9
0.228, -6.051e-10
0.227, -2.815e-9
0.226, -4.479e-10
0.225, -3.002e-9
0.224, -6.051e-10
0.223, -2.815e-9
0.222, -5.167e-10
0.221, -2.727e-9
0.220, -6.345e-10
0.219, -2.972e-9
0.218, -4.676e-10
0.217, -3.002e-9
0.216, -4.676e-10
0.215, -2.884e-9
0.214, -5.952e-10
0.213, -2.727e-9
0.212, -5.952e-10
0.211, -2.786e-9
0.210, -5.363e-10
0.209, -2.835e-9
0.208, -5.265e-10
0.207, -2.815e-9
0.206, -3.988e-10
0.205, -2.795e-9
0.204, -7.229e-10
0.203, -2.766e-9
0.202, -5.756e-10
0.201, -2.884e-9
0.200, -4.872e-10
0.199, -2.923e-9
0.198, -4.872e-10
0.197, -2.923e-9
0.196, -5.658e-10
0.195, -2.845e-9
0.194, -5.756e-10
0.193, -2.884e-9
0.192, -5.854e-10
0.191, -3.021e-9
0.190, -4.381e-10
0.189, -3.041e-9
0.188, -5.167e-10
0.187, -2.972e-9
0.186, -4.676e-10
0.185, -2.815e-9
0.184, -4.479e-10
0.183, -2.904e-9
0.182, -5.265e-10
0.181, -3.021e-9
0.180, -3.890e-10
0.179, -2.982e-9
0.178, -4.479e-10
0.177, -2.923e-9
0.176, -4.872e-10
0.175, -2.825e-9
0.174, -4.283e-10
0.173, -2.943e-9
0.172, -4.184e-10
0.171, -3.021e-9
0.170, -5.167e-10
0.169, -3.002e-9
0.168, -4.676e-10
0.167, -2.923e-9
0.166, -5.265e-10
0.165, -2.982e-9
0.164, -4.577e-10
0.163, -3.061e-9
0.162, -5.167e-10
0.161, -2.962e-9
0.160, -3.890e-10
0.159, -2.992e-9
0.158, -4.970e-10
0.157, -2.992e-9
0.156, -4.479e-10
0.155, -2.933e-9
0.154, -3.890e-10
0.153, -3.021e-9
0.152, -4.970e-10
0.151, -2.982e-9
0.150, -3.792e-10
0.149, -2.894e-9
0.148, -4.479e-10
0.147, -3.061e-9
0.146, -4.184e-10
0.145, -2.982e-9
0.144, -5.461e-10
0.143, -3.041e-9
0.142, -5.461e-10
0.141, -3.080e-9
0.140, -3.104e-10
0.139, -3.129e-9
0.138, -4.577e-10
0.137, -3.228e-9
0.136, -4.479e-10
0.135, -2.972e-9
0.134, -4.381e-10
0.133, -2.953e-9
0.132, -5.461e-10
0.131, -2.962e-9
0.130, -3.595e-10
0.129, -2.972e-9
0.128, -4.676e-10
0.127, -3.090e-9
0.126, -4.577e-10
0.125, -2.904e-9
0.124, -4.577e-10
0.123, -3.002e-9
0.122, -4.283e-10
0.121, -3.090e-9
0.120, -4.381e-10
0.119, -3.051e-9
0.118, -2.515e-10
0.117, -2.992e-9
0.116, -3.202e-10
0.115, -3.031e-9
0.114, -3.988e-10
0.113, -3.071e-9
0.112, -3.890e-10
0.111, -3.061e-9
0.110, -3.497e-10
0.109, -3.110e-9
0.108, -4.086e-10
0.107, -3.129e-9
0.106, -3.890e-10
0.105, -3.021e-9
0.104, -3.988e-10
0.103, -3.100e-9
0.102, -3.693e-10
0.101, -3.159e-9
0.100, -2.907e-10
0.099, -3.149e-9
0.098, -3.792e-10
0.097, -3.169e-9
0.096, -3.300e-10
0.095, -2.982e-9
0.094, -4.283e-10
0.093, -3.080e-9
0.092, -2.416e-10
0.091, -3.188e-9
0.090, -2.613e-10
0.089, -3.120e-9
0.088, -4.479e-10
0.087, -3.159e-9
0.086, -4.283e-10
0.085, -3.051e-9
0.084, -4.676e-10
0.083, -3.179e-9
0.082, -3.300e-10
0.081, -3.188e-9
0.080, -2.809e-10
0.079, -3.129e-9
0.078, -4.086e-10
0.077, -3.090e-9
0.076, -4.676e-10
0.075, -3.071e-9
0.074, -3.693e-10
0.073, -3.267e-9
0.072, -2.907e-10
0.071, -3.179e-9
0.070, -3.104e-10
0.069, -3.139e-9
0.068, -3.202e-10
0.067, -3.237e-9
0.066, -3.006e-10
0.065, -3.129e-9
0.064, -3.988e-10
0.063, -3.228e-9
0.062, -3.104e-10
0.061, -3.159e-9
0.060, -3.595e-10
0.059, -3.090e-9
0.058, -3.497e-10
0.057, -3.277e-9
0.056, -3.595e-10
0.055, -3.100e-9
0.054, -2.023e-10
0.053, -3.129e-9
0.052, -2.220e-10
0.051, -3.159e-9
0.050, -3.497e-10
0.049, -3.090e-9
0.048, -2.711e-10
0.047, -3.257e-9
0.046, -3.300e-10
0.045, -3.169e-9
0.044, -2.023e-10
0.043, -3.129e-9
0.042, -1.925e-10
0.041, -3.267e-9
0.040, -2.318e-10
0.039, -3.120e-9
0.038, -2.416e-10
0.037, -3.228e-9
0.036, -3.202e-10
0.035, -3.228e-9
0.034, -2.613e-10
0.033, -3.179e-9
0.032, -2.809e-10
0.031, -3.061e-9
0.030, -3.988e-10
0.029, -3.139e-9
0.028, -2.220e-10
0.027, -3.257e-9
0.026, -3.104e-10
0.025, -3.208e-9
0.024, -1.434e-10
0.023, -3.188e-9
0.022, -2.122e-10
0.021, -3.247e-9
0.020, -2.318e-10
0.019, -3.257e-9
0.018, -1.532e-10
0.017, -3.198e-9
0.016, -9.430e-11
0.015, -3.208e-9
0.014, -4.519e-11
0.013, -3.188e-9
0.012, -2.416e-10
0.011, -3.316e-9
0.010, -2.318e-10
0.009, -3.120e-9
0.008, -1.729e-10
0.007, -3.237e-9
0.006, -2.318e-10
0.005, -3.149e-9
0.004, -9.430e-11
0.003, -3.237e-9
0.002, -2.416e-10
0.001, -3.208e-9
-0.000, -3.104e-10
-0.001, -3.296e-9
-0.002, -2.711e-10
-0.003, -3.326e-9
-0.004, -3.104e-10
-0.005, -3.237e-9
-0.006, -2.220e-10
-0.007, -3.247e-9
-0.008, -2.416e-10
-0.009, -3.287e-9
-0.010, -3.497e-10
-0.011, -3.208e-9
-0.012, -2.318e-10
-0.013, -3.444e-9
-0.014, -2.907e-10
-0.015, -3.306e-9
-0.016, -1.925e-10
-0.017, -3.316e-9
-0.018, -2.515e-10
-0.019, -3.365e-9
-0.020, -2.515e-10
-0.021, -3.179e-9
-0.022, -1.925e-10
-0.023, -3.306e-9
-0.024, -2.023e-10
-0.025, -3.198e-9
-0.026, -2.220e-10
-0.027, -3.385e-9
-0.028, -3.497e-10
-0.029, -3.326e-9
-0.030, -2.907e-10
-0.031, -3.287e-9
-0.032, -2.220e-10
-0.033, -3.404e-9
-0.034, -2.711e-10
-0.035, -3.326e-9
-0.036, -1.139e-10
-0.037, -3.316e-9
-0.038, -2.318e-10
-0.039, -3.277e-9
-0.040, -3.104e-10
-0.041, -3.090e-9
-0.042, -3.399e-10
-0.043, -3.277e-9
-0.044, -3.497e-10
-0.045, -3.237e-9
-0.046, -1.336e-10
-0.047, -3.355e-9
-0.048, -2.515e-10
-0.049, -3.346e-9
-0.050, -3.693e-10
-0.051, -3.287e-9
-0.052, -2.416e-10
-0.053, -3.326e-9
-0.054, -2.711e-10
-0.055, -3.306e-9
-0.056, -2.318e-10
-0.057, -3.355e-9
-0.058, -2.907e-10
-0.059, -3.336e-9
-0.060, -2.907e-10
-0.061, -3.326e-9
-0.062, -1.336e-10
-0.063, -3.414e-9
-0.064, -2.122e-10
-0.065, -3.306e-9
-0.066, -2.515e-10
-0.067, -3.247e-9
-0.068, -3.104e-10
-0.069, -3.434e-9
-0.070, -2.515e-10
-0.071, -3.316e-9
-0.072, -7.465e-11
-0.073, -3.404e-9
-0.074, -3.497e-10
-0.075, -3.355e-9
-0.076, -2.220e-10
-0.077, -3.346e-9
-0.078, -2.613e-10
-0.079, -3.385e-9
-0.080, -4.086e-10
-0.081, -3.365e-9
-0.082, -2.613e-10
-0.083, -3.414e-9
-0.084, -2.220e-10
-0.085, -3.346e-9
-0.086, -1.827e-10
-0.087, -3.267e-9
-0.088, -1.925e-10
-0.089, -3.444e-9
-0.090, -1.827e-10
-0.091, -3.287e-9
-0.092, -1.827e-10
-0.093, -3.277e-9
-0.094, -2.711e-10
-0.095, -3.346e-9
-0.096, -1.925e-10
-0.097, -3.228e-9
-0.098, -2.907e-10
-0.099, -3.454e-9
-0.100, -1.729e-10
-0.101, -3.395e-9
-0.102, -1.925e-10
-0.103, -3.316e-9
-0.104, -2.711e-10
-0.105, -3.287e-9
-0.106, -2.416e-10
-0.107, -3.375e-9
-0.108, -1.925e-10
-0.109, -3.375e-9
-0.110, -3.595e-10
-0.111, -3.463e-9
-0.112, -3.300e-10
-0.113, -3.326e-9
-0.114, -2.711e-10
-0.115, -3.336e-9
-0.116, -1.631e-10
-0.117, -3.326e-9
-0.118, -1.925e-10
-0.119, -3.404e-9
-0.120, -2.122e-10
-0.121, -3.434e-9
-0.122, -2.809e-10
-0.123, -3.385e-9
-0.124, -2.515e-10
-0.125, -3.326e-9
-0.126, -8.448e-11
-0.127, -3.237e-9
-0.128, -3.399e-10
-0.129, -3.365e-9
-0.130, -2.515e-10
-0.131, -3.454e-9
-0.132, -2.023e-10
-0.133, -3.375e-9
-0.134, -7.465e-11
-0.135, -3.473e-9
-0.136, -2.220e-10
-0.137, -3.365e-9
-0.138, -2.515e-10
-0.139, -3.267e-9
-0.140, -3.693e-10
-0.141, -3.424e-9
-0.142, -2.515e-10
-0.143, -3.414e-9
-0.144, -3.595e-10
-0.145, -3.316e-9
-0.146, -2.711e-10
-0.147, -3.287e-9
-0.148, -1.827e-10
-0.149, -3.287e-9
-0.150, -1.729e-10
-0.151, -3.287e-9
-0.152, -2.515e-10
-0.153, -3.414e-9
-0.154, -3.792e-10
-0.155, -3.326e-9
-0.156, -2.515e-10
-0.157, -3.385e-9
-0.158, -2.711e-10
-0.159, -3.375e-9
-0.160, -2.613e-10
-0.161, -3.306e-9
-0.162, -1.631e-10
-0.163, -3.316e-9
-0.164, -2.515e-10
-0.165, -3.385e-9
-0.166, -2.023e-10
-0.167, -3.365e-9
-0.168, -3.693e-10
-0.169, -3.473e-9
-0.170, -3.595e-10
-0.171, -3.326e-9
-0.172, -3.006e-10
-0.173, -3.395e-9
-0.174, -2.318e-10
-0.175, -3.326e-9
-0.176, -3.006e-10
-0.177, -3.336e-9
-0.178, -1.925e-10
-0.179, -3.296e-9
-0.180, -2.515e-10
-0.181, -3.483e-9
-0.182, -8.448e-11
-0.183, -3.434e-9
-0.184, -2.613e-10
-0.185, -3.414e-9
-0.186, -3.006e-10
-0.187, -3.296e-9
-0.188, -3.693e-10
-0.189, -3.414e-9
-0.190, -2.122e-10
-0.191, -3.424e-9
-0.192, -2.416e-10
-0.193, -3.326e-9
-0.194, -3.300e-10
-0.195, -3.306e-9
-0.196, -2.809e-10
-0.197, -3.395e-9
-0.198, -2.122e-10
-0.199, -3.385e-9
-0.200, -2.122e-10
-0.201, -3.355e-9
-0.202, -2.122e-10
-0.203, -3.257e-9
-0.204, -2.711e-10
-0.205, -3.503e-9
-0.206, -3.300e-10
-0.207, -3.316e-9
-0.208, -3.988e-10
-0.209, -3.326e-9
-0.210, -2.023e-10
-0.211, -3.326e-9
-0.212, -3.497e-10
-0.213, -3.306e-9
-0.214, -3.006e-10
-0.215, -3.493e-9
-0.216, -3.300e-10
-0.217, -3.198e-9
-0.218, -4.283e-10
-0.219, -3.316e-9
-0.220, -1.631e-10
-0.221, -3.296e-9
-0.222, -3.595e-10
-0.223, -3.414e-9
-0.224, -2.416e-10
-0.225, -3.277e-9
-0.226, -3.202e-10
-0.227, -3.336e-9
-0.228, -4.283e-10
-0.229, -3.316e-9
-0.230, -1.139e-10
-0.231, -3.336e-9
-0.232, -2.907e-10
-0.233, -3.247e-9
-0.234, -2.907e-10
-0.235, -3.346e-9
-0.236, -2.711e-10
-0.237, -3.355e-9
-0.238, -2.613e-10
-0.239, -3.267e-9
-0.240, -3.890e-10
-0.241, -3.247e-9
-0.242, -3.792e-10
-0.243, -3.296e-9
-0.244, -2.809e-10
-0.245, -3.267e-9
-0.246, -3.300e-10
-0.247, -3.336e-9
-0.248, -3.988e-10
-0.249, -3.247e-9
-0.250, -3.988e-10
-0.251, -3.237e-9
-0.252, -3.202e-10
-0.253, -3.296e-9
-0.254, -2.711e-10
-0.255, -3.346e-9
-0.256, -3.104e-10
-0.257, -3.100e-9
-0.258, -2.809e-10
-0.259, -3.277e-9
-0.260, -3.497e-10
-0.261, -3.336e-9
-0.262, -3.792e-10
-0.263, -3.159e-9
-0.264, -3.202e-10
-0.265, -3.257e-9
-0.266, -4.283e-10
-0.267, -3.247e-9
-0.268, -2.809e-10
-0.269, -3.404e-9
-0.270, -3.792e-10
-0.271, -3.326e-9
-0.272, -3.202e-10
-0.273, -3.237e-9
-0.274, -4.184e-10
-0.275, -3.385e-9
-0.276, -3.988e-10
-0.277, -3.336e-9
-0.278, -3.300e-10
-0.279, -3.296e-9
-0.280, -4.086e-10
-0.281, -3.306e-9
-0.282, -3.399e-10
-0.283, -3.385e-9
-0.284, -3.890e-10
-0.285, -3.218e-9
-0.286, -2.809e-10
-0.287, -3.277e-9
-0.288, -3.693e-10
-0.289, -3.316e-9
-0.290, -3.202e-10
-0.291, -3.296e-9
-0.292, -3.792e-10
-0.293, -3.346e-9
-0.294, -3.792e-10
-0.295, -3.257e-9
-0.296, -4.479e-10
-0.297, -3.237e-9
-0.298, -3.792e-10
-0.299, -3.296e-9
-0.300, -3.890e-10
-0.301, -3.120e-9
-0.302, -3.595e-10
-0.303, -3.198e-9
-0.304, -3.300e-10
-0.305, -3.287e-9
-0.306, -3.693e-10
-0.307, -3.257e-9
-0.308, -4.676e-10
-0.309, -3.120e-9
-0.310, -4.086e-10
-0.311, -3.237e-9
-0.312, -4.381e-10
-0.313, -3.287e-9
-0.314, -4.872e-10
-0.315, -3.267e-9
-0.316, -4.577e-10
-0.317, -3.021e-9
-0.318, -4.283e-10
-0.319, -3.257e-9
-0.320, -3.792e-10
-0.321, -3.228e-9
-0.322, -4.577e-10
-0.323, -3.129e-9
-0.324, -3.497e-10
-0.325, -3.159e-9
-0.326, -4.577e-10
-0.327, -3.257e-9
-0.328, -3.890e-10
-0.329, -3.228e-9
-0.330, -4.577e-10
-0.331, -3.159e-9
-0.332, -4.479e-10
-0.333, -3.149e-9
-0.334, -4.970e-10
-0.335, -3.188e-9
-0.336, -4.086e-10
-0.337, -3.228e-9
-0.338, -5.461e-10
-0.339, -3.129e-9
-0.340, -3.988e-10
-0.341, -3.090e-9
-0.342, -5.265e-10
-0.343, -3.041e-9
-0.344, -4.479e-10
-0.345, -3.080e-9
-0.346, -5.658e-10
-0.347, -3.041e-9
-0.348, -5.265e-10
-0.349, -3.179e-9
-0.350, -4.086e-10
-0.351, -3.002e-9
-0.352, -4.970e-10
-0.353, -3.159e-9
-0.354, -5.461e-10
-0.355, -2.874e-9
-0.356, -6.149e-10
-0.357, -3.031e-9
-0.358, -4.970e-10
-0.359, -2.982e-9
-0.360, -6.935e-10
-0.361, -2.992e-9
-0.362, -4.774e-10
-0.363, -3.002e-9
-0.364, -5.068e-10
-0.365, -3.021e-9
-0.366, -4.184e-10
-0.367, -3.021e-9
-0.368, -5.560e-10
-0.369, -3.012e-9
-0.370, -5.560e-10
-0.371, -3.002e-9
-0.372, -4.479e-10
-0.373, -2.923e-9
-0.374, -4.676e-10
-0.375, -2.992e-9
-0.376, -4.774e-10
-0.377, -2.864e-9
-0.378, -6.444e-10
-0.379, -3.002e-9
-0.380, -5.560e-10
-0.381, -3.002e-9
-0.382, -4.086e-10
-0.383, -3.080e-9
-0.384, -4.970e-10
-0.385, -2.982e-9
-0.386, -5.952e-10
-0.387, -2.962e-9
-0.388, -5.756e-10
-0.389, -2.982e-9
-0.390, -5.068e-10
-0.391, -2.982e-9
-0.392, -6.345e-10
-0.393, -2.884e-9
-0.394, -5.658e-10
-0.395, -2.923e-9
-0.396, -6.836e-10
-0.397, -2.913e-9
-0.398, -3.988e-10
-0.399, -2.982e-9
-0.400, -5.560e-10
-0.401, -2.913e-9
-0.402, -6.247e-10
-0.403, -2.874e-9
-0.404, -5.167e-10
-0.405, -2.923e-9
-0.406, -5.658e-10
-0.407, -2.835e-9
-0.408, -6.836e-10
-0.409, -2.854e-9
-0.410, -5.854e-10
-0.411, -2.884e-9
-0.412, -6.444e-10
-0.413, -2.864e-9
-0.414, -4.184e-10
-0.415, -2.962e-9
-0.416, -5.854e-10
-0.417, -2.874e-9
-0.418, -5.560e-10
-0.419, -2.805e-9
-0.420, -6.051e-10
-0.421, -2.854e-9
-0.422, -5.952e-10
-0.423, -2.933e-9
-0.424, -6.836e-10
-0.425, -2.805e-9
-0.426, -6.836e-10
-0.427, -2.805e-9
-0.428, -6.247e-10
-0.429, -2.786e-9
-0.430, -6.444e-10
-0.431, -2.904e-9
-0.432, -6.247e-10
-0.433, -2.864e-9
-0.434, -7.229e-10
-0.435, -2.884e-9
-0.436, -6.836e-10
-0.437, -2.972e-9
-0.438, -6.444e-10
-0.439, -2.766e-9
-0.440, -6.444e-10
-0.441, -2.825e-9
-0.442, -6.640e-10
-0.443, -2.864e-9
-0.444, -7.524e-10
-0.445, -2.864e-9
-0.446, -5.265e-10
-0.447, -2.953e-9
-0.448, -8.212e-10
-0.449, -2.962e-9
-0.450, -7.721e-10
-0.451, -2.825e-9
-0.452, -8.506e-10
-0.453, -2.962e-9
-0.454, -8.113e-10
-0.455, -2.913e-9
-0.456, -7.328e-10
-0.457, -2.913e-9
-0.458, -7.033e-10
-0.459, -2.835e-9
-0.460, -7.622e-10
-0.461, -2.854e-9
-0.462, -7.819e-10
-0.463, -2.933e-9
-0.464, -7.819e-10
-0.465, -2.923e-9
-0.466, -8.015e-10
-0.467, -2.786e-9
-0.468, -8.801e-10
-0.469, -2.874e-9
-0.470, -7.131e-10
-0.471, -2.825e-9
-0.472, -7.819e-10
-0.473, -2.913e-9
-0.474, -7.819e-10
-0.475, -2.854e-9
-0.476, -8.015e-10
-0.477, -2.717e-9
-0.478, -7.229e-10
-0.479, -2.815e-9
-0.480, -8.899e-10
-0.481, -2.766e-9
-0.482, -7.426e-10
-0.483, -2.727e-9
-0.484, -7.033e-10
-0.485, -2.707e-9
-0.486, -9.292e-10
-0.487, -2.786e-9
-0.488, -6.640e-10
-0.489, -2.638e-9
-0.490, -7.721e-10
-0.491, -2.727e-9
-0.492, -7.819e-10
-0.493, -2.658e-9
-0.494, -8.605e-10
-0.495, -2.727e-9
-0.496, -7.622e-10
-0.497, -2.795e-9
-0.498, -7.426e-10
-0.499, -2.884e-9
